Index,Time_ms,Raw,Filtered
0,0,2048,2048
1,2,2050,2050
2,5,2052,2052
3,8,2054,2054
4,11,2056,2056
5,13,2058,2058
6,16,2060,2060
7,19,2062,2062
8,22,2063,2063
9,25,2064,2064
10,27,2065,2065
11,30,2066,2066
12,33,2066,2066
13,36,2067,2067
14,38,2067,2067
15,41,2067,2067
16,44,2066,2066
17,47,2066,2066
18,50,2065,2065
19,52,2064,2064
20,55,2063,2063
21,58,2061,2061
22,61,2060,2060
23,63,2058,2058
24,66,2057,2057
25,69,2055,2055
26,72,2053,2053
27,75,2052,2052
28,77,2050,2050
29,80,2049,2049
30,83,2047,2047
31,86,2046,2046
32,88,2044,2044
33,91,2043,2043
34,94,2042,2042
35,97,2041,2041
36,100,2040,2040
37,102,2040,2040
38,105,2039,2039
39,108,2039,2039
40,111,2039,2039
41,113,2039,2039
42,116,2039,2039
43,119,2039,2039
44,122,2039,2039
45,125,2040,2040
46,127,2040,2040
47,130,2040,2040
48,133,2041,2041
49,136,2041,2041
50,138,2042,2042
51,141,2042,2042
52,144,2043,2043
53,147,2043,2043
54,150,2044,2044
55,152,2044,2044
56,155,2044,2044
57,158,2044,2044
58,161,2044,2044
59,163,2045,2045
60,166,2045,2045
61,169,2044,2044
62,172,2044,2044
63,175,2044,2044
64,177,2044,2044
65,180,2044,2044
66,183,2044,2044
67,186,2043,2043
68,188,2043,2043
69,191,2043,2043
70,194,2043,2043
71,197,2043,2043
72,200,2043,2043
73,202,2043,2043
74,205,2044,2044
75,208,2044,2044
76,211,2045,2045
77,213,2045,2045
78,216,2046,2046
79,219,2047,2047
80,222,2048,2048
81,225,2048,2048
82,227,2048,2048
83,230,2042,2042
84,233,2034,2034
85,236,2026,2026
86,238,2037,2037
87,241,2085,2085
88,244,2169,2169
89,247,2281,2281
90,250,2408,2408
91,252,2534,2534
92,255,2627,2627
93,258,2663,2663
94,261,2629,2629
95,263,2535,2535
96,266,2410,2410
97,269,2282,2282
98,272,2168,2168
99,275,2072,2072
100,277,1995,1995
101,280,1940,1940
102,283,1912,1912
103,286,1925,1925
104,288,1958,1958
105,291,1996,1996
106,294,2026,2026
107,297,2042,2042
108,300,2048,2048
109,302,2051,2051
110,305,2049,2049
111,308,2047,2047
112,311,2044,2044
113,313,2042,2042
114,316,2040,2040
115,319,2038,2038
116,322,2037,2037
117,325,2035,2035
118,327,2033,2033
119,330,2032,2032
120,333,2031,2031
121,336,2030,2030
122,338,2029,2029
123,341,2028,2028
124,344,2028,2028
125,347,2028,2028
126,350,2028,2028
127,352,2029,2029
128,355,2030,2030
129,358,2030,2030
130,361,2032,2032
131,363,2033,2033
132,366,2034,2034
133,369,2036,2036
134,372,2038,2038
135,375,2040,2040
136,377,2041,2041
137,380,2043,2043
138,383,2045,2045
139,386,2047,2047
140,388,2049,2049
141,391,2051,2051
142,394,2053,2053
143,397,2054,2054
144,400,2056,2056
145,402,2057,2057
146,405,2058,2058
147,408,2060,2060
148,411,2061,2061
149,413,2062,2062
150,416,2064,2064
151,419,2065,2065
152,422,2066,2066
153,425,2068,2068
154,427,2070,2070
155,430,2072,2072
156,433,2075,2075
157,436,2079,2079
158,438,2083,2083
159,441,2088,2088
160,444,2093,2093
161,447,2099,2099
162,450,2106,2106
163,452,2113,2113
164,455,2121,2121
165,458,2128,2128
166,461,2135,2135
167,463,2142,2142
168,466,2148,2148
169,469,2152,2152
170,472,2156,2156
171,475,2158,2158
172,477,2159,2159
173,480,2157,2157
174,483,2155,2155
175,486,2151,2151
176,488,2145,2145
177,491,2138,2138
178,494,2131,2131
179,497,2123,2123
180,500,2115,2115
181,502,2107,2107
182,505,2099,2099
183,508,2091,2091
184,511,2084,2084
185,513,2078,2078
186,516,2072,2072
187,519,2067,2067
188,522,2063,2063
189,525,2059,2059
190,527,2056,2056
191,530,2053,2053
192,533,2051,2051
193,536,2049,2049
194,538,2047,2047
195,541,2045,2045
196,544,2044,2044
197,547,2042,2042
198,550,2041,2041
199,552,2040,2040
200,555,2039,2039
201,558,2038,2038
202,561,2037,2037
203,563,2037,2037
204,566,2036,2036
205,569,2035,2035
206,572,2035,2035
207,575,2035,2035
208,577,2035,2035
209,580,2035,2035
210,583,2035,2035
211,586,2036,2036
212,588,2036,2036
213,591,2037,2037
214,594,2038,2038
215,597,2039,2039
216,600,2040,2040
217,602,2042,2042
218,605,2043,2043
219,608,2045,2045
220,611,2047,2047
221,613,2049,2049
222,616,2051,2051
223,619,2053,2053
224,622,2055,2055
225,625,2056,2056
226,627,2058,2058
227,630,2060,2060
228,633,2062,2062
229,636,2063,2063
230,638,2048,2048
231,641,2050,2050
232,644,2052,2052
233,647,2054,2054
234,650,2056,2056
235,652,2058,2058
236,655,2060,2060
237,658,2062,2062
238,661,2063,2063
239,663,2064,2064
240,666,2065,2065
241,669,2066,2066
242,672,2066,2066
243,675,2067,2067
244,677,2067,2067
245,680,2067,2067
246,683,2066,2066
247,686,2066,2066
248,688,2065,2065
249,691,2064,2064
250,694,2063,2063
251,697,2061,2061
252,700,2060,2060
253,702,2058,2058
254,705,2057,2057
255,708,2055,2055
256,711,2053,2053
257,713,2052,2052
258,716,2050,2050
259,719,2049,2049
260,722,2047,2047
261,725,2046,2046
262,727,2044,2044
263,730,2043,2043
264,733,2042,2042
265,736,2041,2041
266,738,2040,2040
267,741,2040,2040
268,744,2039,2039
269,747,2039,2039
270,750,2039,2039
271,752,2039,2039
272,755,2039,2039
273,758,2039,2039
274,761,2039,2039
275,763,2040,2040
276,766,2040,2040
277,769,2040,2040
278,772,2041,2041
279,775,2041,2041
280,777,2042,2042
281,780,2042,2042
282,783,2043,2043
283,786,2043,2043
284,788,2044,2044
285,791,2044,2044
286,794,2044,2044
287,797,2044,2044
288,800,2044,2044
289,802,2045,2045
290,805,2045,2045
291,808,2044,2044
292,811,2044,2044
293,813,2044,2044
294,816,2044,2044
295,819,2044,2044
296,822,2044,2044
297,825,2043,2043
298,827,2043,2043
299,830,2043,2043
300,833,2043,2043
301,836,2043,2043
302,838,2043,2043
303,841,2043,2043
304,844,2044,2044
305,847,2044,2044
306,850,2045,2045
307,852,2045,2045
308,855,2046,2046
309,858,2047,2047
310,861,2048,2048
311,863,2048,2048
312,866,2048,2048
313,869,2042,2042
314,872,2034,2034
315,875,2026,2026
316,877,2037,2037
317,880,2085,2085
318,883,2169,2169
319,886,2281,2281
320,888,2408,2408
321,891,2534,2534
322,894,2627,2627
323,897,2663,2663
324,900,2629,2629
325,902,2535,2535
326,905,2410,2410
327,908,2282,2282
328,911,2168,2168
329,913,2072,2072
330,916,1995,1995
331,919,1940,1940
332,922,1912,1912
333,925,1925,1925
334,927,1958,1958
335,930,1996,1996
336,933,2026,2026
337,936,2042,2042
338,938,2048,2048
339,941,2051,2051
340,944,2049,2049
341,947,2047,2047
342,950,2044,2044
343,952,2042,2042
344,955,2040,2040
345,958,2038,2038
346,961,2037,2037
347,963,2035,2035
348,966,2033,2033
349,969,2032,2032
350,972,2031,2031
351,975,2030,2030
352,977,2029,2029
353,980,2028,2028
354,983,2028,2028
355,986,2028,2028
356,988,2028,2028
357,991,2029,2029
358,994,2030,2030
359,997,2030,2030
360,1000,2032,2032
361,1002,2033,2033
362,1005,2034,2034
363,1008,2036,2036
364,1011,2038,2038
365,1013,2040,2040
366,1016,2041,2041
367,1019,2043,2043
368,1022,2045,2045
369,1025,2047,2047
370,1027,2049,2049
371,1030,2051,2051
372,1033,2053,2053
373,1036,2054,2054
374,1038,2056,2056
375,1041,2057,2057
376,1044,2058,2058
377,1047,2060,2060
378,1050,2061,2061
379,1052,2062,2062
380,1055,2064,2064
381,1058,2065,2065
382,1061,2066,2066
383,1063,2068,2068
384,1066,2070,2070
385,1069,2072,2072
386,1072,2075,2075
387,1075,2079,2079
388,1077,2083,2083
389,1080,2088,2088
390,1083,2093,2093
391,1086,2099,2099
392,1088,2106,2106
393,1091,2113,2113
394,1094,2121,2121
395,1097,2128,2128
396,1100,2135,2135
397,1102,2142,2142
398,1105,2148,2148
399,1108,2152,2152
400,1111,2156,2156
401,1113,2158,2158
402,1116,2159,2159
403,1119,2157,2157
404,1122,2155,2155
405,1125,2151,2151
406,1127,2145,2145
407,1130,2138,2138
408,1133,2131,2131
409,1136,2123,2123
410,1138,2115,2115
411,1141,2107,2107
412,1144,2099,2099
413,1147,2091,2091
414,1150,2084,2084
415,1152,2078,2078
416,1155,2072,2072
417,1158,2067,2067
418,1161,2063,2063
419,1163,2059,2059
420,1166,2056,2056
421,1169,2053,2053
422,1172,2051,2051
423,1175,2049,2049
424,1177,2047,2047
425,1180,2045,2045
426,1183,2044,2044
427,1186,2042,2042
428,1188,2041,2041
429,1191,2040,2040
430,1194,2039,2039
431,1197,2038,2038
432,1200,2037,2037
433,1202,2037,2037
434,1205,2036,2036
435,1208,2035,2035
436,1211,2035,2035
437,1213,2035,2035
438,1216,2035,2035
439,1219,2035,2035
440,1222,2035,2035
441,1225,2036,2036
442,1227,2036,2036
443,1230,2037,2037
444,1233,2038,2038
445,1236,2039,2039
446,1238,2040,2040
447,1241,2042,2042
448,1244,2043,2043
449,1247,2045,2045
450,1250,2047,2047
451,1252,2049,2049
452,1255,2051,2051
453,1258,2053,2053
454,1261,2055,2055
455,1263,2056,2056
456,1266,2058,2058
457,1269,2060,2060
458,1272,2062,2062
459,1275,2063,2063
460,1277,2064,2064
461,1280,2066,2066
462,1283,2066,2066
463,1286,2067,2067
464,1288,2068,2068
465,1291,2068,2068
466,1294,2068,2068
467,1297,2068,2068
468,1300,2067,2067
469,1302,2066,2066
470,1305,2065,2065
471,1308,2064,2064
472,1311,2063,2063
473,1313,2061,2061
474,1316,2059,2059
475,1319,2058,2058
476,1322,2056,2056
477,1325,2054,2054
478,1327,2052,2052
479,1330,2049,2049
480,1333,2047,2047
481,1336,2045,2045
482,1338,2043,2043
483,1341,2041,2041
484,1344,2048,2048
485,1347,2050,2050
486,1350,2052,2052
487,1352,2054,2054
488,1355,2056,2056
489,1358,2058,2058
490,1361,2060,2060
491,1363,2062,2062
492,1366,2063,2063
493,1369,2064,2064
494,1372,2065,2065
495,1375,2066,2066
496,1377,2066,2066
497,1380,2067,2067
498,1383,2067,2067
499,1386,2067,2067
500,1388,2066,2066
501,1391,2066,2066
502,1394,2065,2065
503,1397,2064,2064
504,1400,2063,2063
505,1402,2061,2061
506,1405,2060,2060
507,1408,2058,2058
508,1411,2057,2057
509,1413,2055,2055
510,1416,2053,2053
511,1419,2052,2052
512,1422,2050,2050
513,1425,2049,2049
514,1427,2047,2047
515,1430,2046,2046
516,1433,2044,2044
517,1436,2043,2043
518,1438,2042,2042
519,1441,2041,2041
520,1444,2040,2040
521,1447,2040,2040
522,1450,2039,2039
523,1452,2039,2039
524,1455,2039,2039
525,1458,2039,2039
526,1461,2039,2039
527,1463,2039,2039
528,1466,2039,2039
529,1469,2040,2040
530,1472,2040,2040
531,1475,2040,2040
532,1477,2041,2041
533,1480,2041,2041
534,1483,2042,2042
535,1486,2042,2042
536,1488,2043,2043
537,1491,2043,2043
538,1494,2044,2044
539,1497,2044,2044
540,1500,2044,2044
541,1502,2044,2044
542,1505,2044,2044
543,1508,2045,2045
544,1511,2045,2045
545,1513,2044,2044
546,1516,2044,2044
547,1519,2044,2044
548,1522,2044,2044
549,1525,2044,2044
550,1527,2044,2044
551,1530,2043,2043
552,1533,2043,2043
553,1536,2043,2043
554,1538,2043,2043
555,1541,2043,2043
556,1544,2043,2043
557,1547,2043,2043
558,1550,2044,2044
559,1552,2044,2044
560,1555,2045,2045
561,1558,2045,2045
562,1561,2046,2046
563,1563,2047,2047
564,1566,2048,2048
565,1569,2048,2048
566,1572,2048,2048
567,1575,2042,2042
568,1577,2034,2034
569,1580,2026,2026
570,1583,2037,2037
571,1586,2085,2085
572,1588,2169,2169
573,1591,2281,2281
574,1594,2408,2408
575,1597,2534,2534
576,1600,2627,2627
577,1602,2663,2663
578,1605,2629,2629
579,1608,2535,2535
580,1611,2410,2410
581,1613,2282,2282
582,1616,2168,2168
583,1619,2072,2072
584,1622,1995,1995
585,1625,1940,1940
586,1627,1912,1912
587,1630,1925,1925
588,1633,1958,1958
589,1636,1996,1996
590,1638,2026,2026
591,1641,2042,2042
592,1644,2048,2048
593,1647,2051,2051
594,1650,2049,2049
595,1652,2047,2047
596,1655,2044,2044
597,1658,2042,2042
598,1661,2040,2040
599,1663,2038,2038
600,1666,2037,2037
601,1669,2035,2035
602,1672,2033,2033
603,1675,2032,2032
604,1677,2031,2031
605,1680,2030,2030
606,1683,2029,2029
607,1686,2028,2028
608,1688,2028,2028
609,1691,2028,2028
610,1694,2028,2028
611,1697,2029,2029
612,1700,2030,2030
613,1702,2030,2030
614,1705,2032,2032
615,1708,2033,2033
616,1711,2034,2034
617,1713,2036,2036
618,1716,2038,2038
619,1719,2040,2040
620,1722,2041,2041
621,1725,2043,2043
622,1727,2045,2045
623,1730,2047,2047
624,1733,2049,2049
625,1736,2051,2051
626,1738,2053,2053
627,1741,2054,2054
628,1744,2056,2056
629,1747,2057,2057
630,1750,2058,2058
631,1752,2060,2060
632,1755,2061,2061
633,1758,2062,2062
634,1761,2064,2064
635,1763,2065,2065
636,1766,2066,2066
637,1769,2068,2068
638,1772,2070,2070
639,1775,2072,2072
640,1777,2075,2075
641,1780,2079,2079
642,1783,2083,2083
643,1786,2088,2088
644,1788,2093,2093
645,1791,2099,2099
646,1794,2106,2106
647,1797,2113,2113
648,1800,2121,2121
649,1802,2128,2128
650,1805,2135,2135
651,1808,2142,2142
652,1811,2148,2148
653,1813,2152,2152
654,1816,2156,2156
655,1819,2158,2158
656,1822,2159,2159
657,1825,2157,2157
658,1827,2155,2155
659,1830,2151,2151
660,1833,2145,2145
661,1836,2138,2138
662,1838,2131,2131
663,1841,2123,2123
664,1844,2115,2115
665,1847,2107,2107
666,1850,2099,2099
667,1852,2091,2091
668,1855,2084,2084
669,1858,2078,2078
670,1861,2072,2072
671,1863,2067,2067
672,1866,2063,2063
673,1869,2059,2059
674,1872,2056,2056
675,1875,2053,2053
676,1877,2051,2051
677,1880,2048,2048
678,1883,2050,2050
679,1886,2052,2052
680,1888,2054,2054
681,1891,2056,2056
682,1894,2058,2058
683,1897,2060,2060
684,1900,2062,2062
685,1902,2063,2063
686,1905,2064,2064
687,1908,2065,2065
688,1911,2066,2066
689,1913,2066,2066
690,1916,2067,2067
691,1919,2067,2067
692,1922,2067,2067
693,1925,2066,2066
694,1927,2066,2066
695,1930,2065,2065
696,1933,2064,2064
697,1936,2063,2063
698,1938,2061,2061
699,1941,2060,2060
700,1944,2058,2058
701,1947,2057,2057
702,1950,2055,2055
703,1952,2053,2053
704,1955,2052,2052
705,1958,2050,2050
706,1961,2049,2049
707,1963,2047,2047
708,1966,2046,2046
709,1969,2044,2044
710,1972,2043,2043
711,1975,2042,2042
712,1977,2041,2041
713,1980,2040,2040
714,1983,2040,2040
715,1986,2039,2039
716,1988,2039,2039
717,1991,2039,2039
718,1994,2039,2039
719,1997,2039,2039
720,2000,2039,2039
721,2002,2039,2039
722,2005,2040,2040
723,2008,2040,2040
724,2011,2040,2040
725,2013,2041,2041
726,2016,2041,2041
727,2019,2042,2042
728,2022,2042,2042
729,2025,2043,2043
730,2027,2043,2043
731,2030,2044,2044
732,2033,2044,2044
733,2036,2044,2044
734,2038,2044,2044
735,2041,2044,2044
736,2044,2045,2045
737,2047,2045,2045
738,2050,2044,2044
739,2052,2044,2044
740,2055,2044,2044
741,2058,2044,2044
742,2061,2044,2044
743,2063,2044,2044
744,2066,2043,2043
745,2069,2043,2043
746,2072,2043,2043
747,2075,2043,2043
748,2077,2043,2043
749,2080,2043,2043
750,2083,2043,2043
751,2086,2044,2044
752,2088,2044,2044
753,2091,2045,2045
754,2094,2045,2045
755,2097,2046,2046
756,2100,2047,2047
757,2102,2048,2048
758,2105,2048,2048
759,2108,2048,2048
760,2111,2042,2042
761,2113,2034,2034
762,2116,2026,2026
763,2119,2037,2037
764,2122,2085,2085
765,2125,2169,2169
766,2127,2281,2281
767,2130,2408,2408
768,2133,2534,2534
769,2136,2627,2627
770,2138,2663,2663
771,2141,2629,2629
772,2144,2535,2535
773,2147,2410,2410
774,2150,2282,2282
775,2152,2168,2168
776,2155,2072,2072
777,2158,1995,1995
778,2161,1940,1940
779,2163,1912,1912
780,2166,1925,1925
781,2169,1958,1958
782,2172,1996,1996
783,2175,2026,2026
784,2177,2042,2042
785,2180,2048,2048
786,2183,2051,2051
787,2186,2049,2049
788,2188,2047,2047
789,2191,2044,2044
790,2194,2042,2042
791,2197,2040,2040
792,2200,2038,2038
793,2202,2037,2037
794,2205,2035,2035
795,2208,2033,2033
796,2211,2032,2032
797,2213,2031,2031
798,2216,2030,2030
799,2219,2029,2029
800,2222,2028,2028
801,2225,2028,2028
802,2227,2028,2028
803,2230,2028,2028
804,2233,2029,2029
805,2236,2030,2030
806,2238,2030,2030
807,2241,2032,2032
808,2244,2033,2033
809,2247,2034,2034
810,2250,2036,2036
811,2252,2038,2038
812,2255,2040,2040
813,2258,2041,2041
814,2261,2043,2043
815,2263,2045,2045
816,2266,2047,2047
817,2269,2049,2049
818,2272,2051,2051
819,2275,2053,2053
820,2277,2054,2054
821,2280,2056,2056
822,2283,2057,2057
823,2286,2058,2058
824,2288,2060,2060
825,2291,2061,2061
826,2294,2062,2062
827,2297,2064,2064
828,2300,2065,2065
829,2302,2066,2066
830,2305,2068,2068
831,2308,2070,2070
832,2311,2072,2072
833,2313,2075,2075
834,2316,2079,2079
835,2319,2083,2083
836,2322,2088,2088
837,2325,2093,2093
838,2327,2099,2099
839,2330,2106,2106
840,2333,2113,2113
841,2336,2121,2121
842,2338,2128,2128
843,2341,2135,2135
844,2344,2142,2142
845,2347,2148,2148
846,2350,2152,2152
847,2352,2156,2156
848,2355,2158,2158
849,2358,2159,2159
850,2361,2157,2157
851,2363,2155,2155
852,2366,2151,2151
853,2369,2048,2048
854,2372,2050,2050
855,2375,2052,2052
856,2377,2054,2054
857,2380,2056,2056
858,2383,2058,2058
859,2386,2060,2060
860,2388,2062,2062
861,2391,2063,2063
862,2394,2064,2064
863,2397,2065,2065
864,2400,2066,2066
865,2402,2066,2066
866,2405,2067,2067
867,2408,2067,2067
868,2411,2067,2067
869,2413,2066,2066
870,2416,2066,2066
871,2419,2065,2065
872,2422,2064,2064
873,2425,2063,2063
874,2427,2061,2061
875,2430,2060,2060
876,2433,2058,2058
877,2436,2057,2057
878,2438,2055,2055
879,2441,2053,2053
880,2444,2052,2052
881,2447,2050,2050
882,2450,2049,2049
883,2452,2047,2047
884,2455,2046,2046
885,2458,2044,2044
886,2461,2043,2043
887,2463,2042,2042
888,2466,2041,2041
889,2469,2040,2040
890,2472,2040,2040
891,2475,2039,2039
892,2477,2039,2039
893,2480,2039,2039
894,2483,2039,2039
895,2486,2039,2039
896,2488,2039,2039
897,2491,2039,2039
898,2494,2040,2040
899,2497,2040,2040
900,2500,2040,2040
901,2502,2041,2041
902,2505,2041,2041
903,2508,2042,2042
904,2511,2042,2042
905,2513,2043,2043
906,2516,2043,2043
907,2519,2044,2044
908,2522,2044,2044
909,2525,2044,2044
910,2527,2044,2044
911,2530,2044,2044
912,2533,2045,2045
913,2536,2045,2045
914,2538,2044,2044
915,2541,2042,2042
916,2544,2035,2035
917,2547,2026,2026
918,2550,2016,2016
919,2552,2026,2026
920,2555,2072,2072
921,2558,2155,2155
922,2561,2265,2265
923,2563,2391,2391
924,2566,2516,2516
925,2569,2608,2608
926,2572,2643,2643
927,2575,2609,2609
928,2577,2515,2515
929,2580,2391,2391
930,2583,2263,2263
931,2586,2150,2150
932,2588,2055,2055
933,2591,1979,1979
934,2594,1926,1926
935,2597,1900,1900
936,2600,1915,1915
937,2602,1951,1951
938,2605,1992,1992
939,2608,2024,2024
940,2611,2044,2044
941,2613,2053,2053
942,2616,2059,2059
943,2619,2060,2060
944,2622,2061,2061
945,2625,2062,2062
946,2627,2063,2063
947,2630,2064,2064
948,2633,2064,2064
949,2636,2064,2064
950,2638,2064,2064
951,2641,2064,2064
952,2644,2064,2064
953,2647,2064,2064
954,2650,2063,2063
955,2652,2062,2062
956,2655,2061,2061
957,2658,2060,2060
958,2661,2058,2058
959,2663,2056,2056
960,2666,2055,2055
961,2669,2053,2053
962,2672,2051,2051
963,2675,2049,2049
964,2677,2047,2047
965,2680,2044,2044
966,2683,2043,2043
967,2686,2042,2042
968,2688,2040,2040
969,2691,2039,2039
970,2694,2038,2038
971,2697,2038,2038
972,2700,2039,2039
973,2702,2040,2040
974,2705,2041,2041
975,2708,2044,2044
976,2711,2048,2048
977,2713,2052,2052
978,2716,2058,2058
979,2719,2064,2064
980,2722,2072,2072
981,2725,2080,2080
982,2727,2089,2089
983,2730,2099,2099
984,2733,2108,2108
985,2736,2118,2118
986,2738,2127,2127
987,2741,2135,2135
988,2744,2142,2142
989,2747,2148,2148
990,2750,2152,2152
991,2752,2155,2155
992,2755,2156,2156
993,2758,2156,2156
994,2761,2153,2153
995,2763,2150,2150
996,2766,2145,2145
997,2769,2139,2139
998,2772,2048,2048
999,2775,2050,2050
1000,2777,2052,2052
1001,2780,2054,2054
1002,2783,2056,2056
1003,2786,2058,2058
1004,2788,2060,2060
1005,2791,2062,2062
1006,2794,2063,2063
1007,2797,2064,2064
1008,2800,2065,2065
1009,2802,2066,2066
1010,2805,2066,2066
1011,2808,2067,2067
1012,2811,2067,2067
1013,2813,2067,2067
1014,2816,2066,2066
1015,2819,2066,2066
1016,2822,2065,2065
1017,2825,2064,2064
1018,2827,2063,2063
1019,2830,2061,2061
1020,2833,2060,2060
1021,2836,2058,2058
1022,2838,2057,2057
1023,2841,2055,2055
1024,2844,2053,2053
1025,2847,2052,2052
1026,2850,2050,2050
1027,2852,2049,2049
1028,2855,2047,2047
1029,2858,2046,2046
1030,2861,2044,2044
1031,2863,2043,2043
1032,2866,2042,2042
1033,2869,2041,2041
1034,2872,2040,2040
1035,2875,2040,2040
1036,2877,2039,2039
1037,2880,2039,2039
1038,2883,2039,2039
1039,2886,2039,2039
1040,2888,2039,2039
1041,2891,2039,2039
1042,2894,2039,2039
1043,2897,2040,2040
1044,2900,2040,2040
1045,2902,2040,2040
1046,2905,2041,2041
1047,2908,2041,2041
1048,2911,2042,2042
1049,2913,2042,2042
1050,2916,2043,2043
1051,2919,2043,2043
1052,2922,2044,2044
1053,2925,2044,2044
1054,2927,2044,2044
1055,2930,2044,2044
1056,2933,2044,2044
1057,2936,2045,2045
1058,2938,2045,2045
1059,2941,2044,2044
1060,2944,2044,2044
1061,2947,2044,2044
1062,2950,2044,2044
1063,2952,2044,2044
1064,2955,2044,2044
1065,2958,2043,2043
1066,2961,2043,2043
1067,2963,2043,2043
1068,2966,2043,2043
1069,2969,2043,2043
1070,2972,2043,2043
1071,2975,2043,2043
1072,2977,2044,2044
1073,2980,2044,2044
1074,2983,2045,2045
1075,2986,2045,2045
1076,2988,2046,2046
1077,2991,2047,2047
1078,2994,2048,2048
1079,2997,2048,2048
1080,3000,2048,2048
1081,3002,2042,2042
1082,3005,2034,2034
1083,3008,2026,2026
1084,3011,2037,2037
1085,3013,2085,2085
1086,3016,2169,2169
1087,3019,2281,2281
1088,3022,2408,2408
1089,3025,2534,2534
1090,3027,2627,2627
1091,3030,2663,2663
1092,3033,2629,2629
1093,3036,2535,2535
1094,3038,2410,2410
1095,3041,2282,2282
1096,3044,2168,2168
1097,3047,2072,2072
1098,3050,1995,1995
1099,3052,1940,1940
1100,3055,1912,1912
1101,3058,1925,1925
1102,3061,1958,1958
1103,3063,1996,1996
1104,3066,2026,2026
1105,3069,2042,2042
1106,3072,2048,2048
1107,3075,2051,2051
1108,3077,2049,2049
1109,3080,2047,2047
1110,3083,2044,2044
1111,3086,2042,2042
1112,3088,2040,2040
1113,3091,2038,2038
1114,3094,2037,2037
1115,3097,2035,2035
1116,3100,2033,2033
1117,3102,2032,2032
1118,3105,2031,2031
1119,3108,2030,2030
1120,3111,2029,2029
1121,3113,2028,2028
1122,3116,2028,2028
1123,3119,2028,2028
1124,3122,2028,2028
1125,3125,2029,2029
1126,3127,2030,2030
1127,3130,2030,2030
1128,3133,2032,2032
1129,3136,2033,2033
1130,3138,2034,2034
1131,3141,2036,2036
1132,3144,2038,2038
1133,3147,2040,2040
1134,3150,2041,2041
1135,3152,2043,2043
1136,3155,2045,2045
1137,3158,2047,2047
1138,3161,2049,2049
1139,3163,2051,2051
1140,3166,2053,2053
1141,3169,2054,2054
1142,3172,2056,2056
1143,3175,2058,2058
1144,3177,2060,2060
1145,3180,2062,2062
1146,3183,2063,2063
1147,3186,2065,2065
1148,3188,2068,2068
1149,3191,2070,2070
1150,3194,2073,2073
1151,3197,2076,2076
1152,3200,2080,2080
1153,3202,2085,2085
1154,3205,2090,2090
1155,3208,2095,2095
1156,3211,2102,2102
1157,3213,2109,2109
1158,3216,2116,2116
1159,3219,2123,2123
1160,3222,2131,2131
1161,3225,2138,2138
1162,3227,2144,2144
1163,3230,2150,2150
1164,3233,2154,2154
1165,3236,2158,2158
1166,3238,2160,2160
1167,3241,2048,2048
1168,3244,2050,2050
1169,3247,2052,2052
1170,3250,2054,2054
1171,3252,2056,2056
1172,3255,2058,2058
1173,3258,2060,2060
1174,3261,2062,2062
1175,3263,2063,2063
1176,3266,2064,2064
1177,3269,2065,2065
1178,3272,2066,2066
1179,3275,2066,2066
1180,3277,2067,2067
1181,3280,2067,2067
1182,3283,2067,2067
1183,3286,2066,2066
1184,3288,2066,2066
1185,3291,2065,2065
1186,3294,2064,2064
1187,3297,2063,2063
1188,3300,2061,2061
1189,3302,2060,2060
1190,3305,2058,2058
1191,3308,2057,2057
1192,3311,2055,2055
1193,3313,2053,2053
1194,3316,2052,2052
1195,3319,2050,2050
1196,3322,2049,2049
1197,3325,2047,2047
1198,3327,2046,2046
1199,3330,2044,2044
1200,3333,2043,2043
1201,3336,2042,2042
1202,3338,2041,2041
1203,3341,2040,2040
1204,3344,2040,2040
1205,3347,2039,2039
1206,3350,2039,2039
1207,3352,2039,2039
1208,3355,2039,2039
1209,3358,2039,2039
1210,3361,2039,2039
1211,3363,2039,2039
1212,3366,2040,2040
1213,3369,2040,2040
1214,3372,2040,2040
1215,3375,2041,2041
1216,3377,2041,2041
1217,3380,2042,2042
1218,3383,2042,2042
1219,3386,2043,2043
1220,3388,2043,2043
1221,3391,2044,2044
1222,3394,2044,2044
1223,3397,2044,2044
1224,3400,2044,2044
1225,3402,2044,2044
1226,3405,2045,2045
1227,3408,2045,2045
1228,3411,2044,2044
1229,3413,2044,2044
1230,3416,2044,2044
1231,3419,2044,2044
1232,3422,2044,2044
1233,3425,2044,2044
1234,3427,2043,2043
1235,3430,2043,2043
1236,3433,2043,2043
1237,3436,2043,2043
1238,3438,2043,2043
1239,3441,2043,2043
1240,3444,2043,2043
1241,3447,2044,2044
1242,3450,2044,2044
1243,3452,2045,2045
1244,3455,2045,2045
1245,3458,2046,2046
1246,3461,2047,2047
1247,3463,2048,2048
1248,3466,2048,2048
1249,3469,2048,2048
1250,3472,2042,2042
1251,3475,2034,2034
1252,3477,2026,2026
1253,3480,2037,2037
1254,3483,2085,2085
1255,3486,2169,2169
1256,3488,2281,2281
1257,3491,2408,2408
1258,3494,2534,2534
1259,3497,2627,2627
1260,3500,2663,2663
1261,3502,2629,2629
1262,3505,2535,2535
1263,3508,2410,2410
1264,3511,2282,2282
1265,3513,2168,2168
1266,3516,2072,2072
1267,3519,1995,1995
1268,3522,1940,1940
1269,3525,1912,1912
1270,3527,1925,1925
1271,3530,1958,1958
1272,3533,1996,1996
1273,3536,2026,2026
1274,3538,2042,2042
1275,3541,2048,2048
1276,3544,2051,2051
1277,3547,2049,2049
1278,3550,2047,2047
1279,3552,2044,2044
1280,3555,2042,2042
1281,3558,2040,2040
1282,3561,2038,2038
1283,3563,2037,2037
1284,3566,2035,2035
1285,3569,2033,2033
1286,3572,2032,2032
1287,3575,2031,2031
1288,3577,2030,2030
1289,3580,2029,2029
1290,3583,2028,2028
1291,3586,2028,2028
1292,3588,2028,2028
1293,3591,2028,2028
1294,3594,2029,2029
1295,3597,2030,2030
1296,3600,2030,2030
1297,3602,2032,2032
1298,3605,2033,2033
1299,3608,2034,2034
1300,3611,2036,2036
1301,3613,2038,2038
1302,3616,2040,2040
1303,3619,2041,2041
1304,3622,2043,2043
1305,3625,2045,2045
1306,3627,2047,2047
1307,3630,2049,2049
1308,3633,2051,2051
1309,3636,2053,2053
1310,3638,2054,2054
1311,3641,2056,2056
1312,3644,2057,2057
1313,3647,2058,2058
1314,3650,2060,2060
1315,3652,2061,2061
1316,3655,2062,2062
1317,3658,2064,2064
1318,3661,2065,2065
1319,3663,2066,2066
1320,3666,2068,2068
1321,3669,2070,2070
1322,3672,2072,2072
1323,3675,2075,2075
1324,3677,2079,2079
1325,3680,2083,2083
1326,3683,2088,2088
1327,3686,2093,2093
1328,3688,2099,2099
1329,3691,2106,2106
1330,3694,2113,2113
1331,3697,2121,2121
1332,3700,2128,2128
1333,3702,2135,2135
1334,3705,2142,2142
1335,3708,2148,2148
1336,3711,2152,2152
1337,3713,2156,2156
1338,3716,2158,2158
1339,3719,2159,2159
1340,3722,2157,2157
1341,3725,2155,2155
1342,3727,2151,2151
1343,3730,2145,2145
1344,3733,2138,2138
1345,3736,2131,2131
1346,3738,2123,2123
1347,3741,2115,2115
1348,3744,2107,2107
1349,3747,2099,2099
1350,3750,2091,2091
1351,3752,2084,2084
1352,3755,2078,2078
1353,3758,2072,2072
1354,3761,2067,2067
1355,3763,2063,2063
1356,3766,2059,2059
1357,3769,2056,2056
1358,3772,2053,2053
1359,3775,2051,2051
1360,3777,2049,2049
1361,3780,2047,2047
1362,3783,2045,2045
1363,3786,2044,2044
1364,3788,2042,2042
1365,3791,2041,2041
1366,3794,2040,2040
1367,3797,2039,2039
1368,3800,2038,2038
1369,3802,2037,2037
1370,3805,2037,2037
1371,3808,2048,2048
1372,3811,2050,2050
1373,3813,2052,2052
1374,3816,2054,2054
1375,3819,2056,2056
1376,3822,2058,2058
1377,3825,2060,2060
1378,3827,2062,2062
1379,3830,2063,2063
1380,3833,2064,2064
1381,3836,2065,2065
1382,3838,2066,2066
1383,3841,2066,2066
1384,3844,2067,2067
1385,3847,2067,2067
1386,3850,2067,2067
1387,3852,2066,2066
1388,3855,2066,2066
1389,3858,2065,2065
1390,3861,2064,2064
1391,3863,2063,2063
1392,3866,2061,2061
1393,3869,2060,2060
1394,3872,2058,2058
1395,3875,2057,2057
1396,3877,2055,2055
1397,3880,2053,2053
1398,3883,2052,2052
1399,3886,2050,2050
1400,3888,2049,2049
1401,3891,2047,2047
1402,3894,2046,2046
1403,3897,2044,2044
1404,3900,2043,2043
1405,3902,2042,2042
1406,3905,2041,2041
1407,3908,2040,2040
1408,3911,2040,2040
1409,3913,2039,2039
1410,3916,2039,2039
1411,3919,2039,2039
1412,3922,2039,2039
1413,3925,2039,2039
1414,3927,2039,2039
1415,3930,2039,2039
1416,3933,2040,2040
1417,3936,2040,2040
1418,3938,2040,2040
1419,3941,2041,2041
1420,3944,2041,2041
1421,3947,2042,2042
1422,3950,2042,2042
1423,3952,2043,2043
1424,3955,2043,2043
1425,3958,2044,2044
1426,3961,2044,2044
1427,3963,2044,2044
1428,3966,2044,2044
1429,3969,2044,2044
1430,3972,2045,2045
1431,3975,2045,2045
1432,3977,2044,2044
1433,3980,2044,2044
1434,3983,2044,2044
1435,3986,2044,2044
1436,3988,2044,2044
1437,3991,2044,2044
1438,3994,2043,2043
1439,3997,2043,2043
1440,4000,2043,2043
1441,4002,2043,2043
1442,4005,2043,2043
1443,4008,2043,2043
1444,4011,2043,2043
1445,4013,2044,2044
1446,4016,2044,2044
1447,4019,2045,2045
1448,4022,2045,2045
1449,4025,2046,2046
1450,4027,2047,2047
1451,4030,2048,2048
1452,4033,2048,2048
1453,4036,2048,2048
1454,4038,2042,2042
1455,4041,2034,2034
1456,4044,2026,2026
1457,4047,2037,2037
1458,4050,2085,2085
1459,4052,2169,2169
1460,4055,2281,2281
1461,4058,2408,2408
1462,4061,2534,2534
1463,4063,2627,2627
1464,4066,2663,2663
1465,4069,2629,2629
1466,4072,2535,2535
1467,4075,2410,2410
1468,4077,2282,2282
1469,4080,2168,2168
1470,4083,2072,2072
1471,4086,1995,1995
1472,4088,1940,1940
1473,4091,1912,1912
1474,4094,1925,1925
1475,4097,1958,1958
1476,4100,1996,1996
1477,4102,2026,2026
1478,4105,2042,2042
1479,4108,2048,2048
1480,4111,2051,2051
1481,4113,2049,2049
1482,4116,2047,2047
1483,4119,2044,2044
1484,4122,2042,2042
1485,4125,2040,2040
1486,4127,2038,2038
1487,4130,2037,2037
1488,4133,2035,2035
1489,4136,2033,2033
1490,4138,2032,2032
1491,4141,2031,2031
1492,4144,2030,2030
1493,4147,2029,2029
1494,4150,2028,2028
1495,4152,2028,2028
1496,4155,2028,2028
1497,4158,2028,2028
1498,4161,2029,2029
1499,4163,2030,2030
1500,4166,2030,2030
1501,4169,2032,2032
1502,4172,2033,2033
1503,4175,2034,2034
1504,4177,2036,2036
1505,4180,2038,2038
1506,4183,2040,2040
1507,4186,2041,2041
1508,4188,2043,2043
1509,4191,2045,2045
1510,4194,2047,2047
1511,4197,2049,2049
1512,4200,2051,2051
1513,4202,2053,2053
1514,4205,2054,2054
1515,4208,2056,2056
1516,4211,2057,2057
1517,4213,2058,2058
1518,4216,2060,2060
1519,4219,2061,2061
1520,4222,2062,2062
1521,4225,2064,2064
1522,4227,2065,2065
1523,4230,2066,2066
1524,4233,2068,2068
1525,4236,2070,2070
1526,4238,2072,2072
1527,4241,2075,2075
1528,4244,2079,2079
1529,4247,2083,2083
1530,4250,2088,2088
1531,4252,2093,2093
1532,4255,2099,2099
1533,4258,2106,2106
1534,4261,2113,2113
1535,4263,2121,2121
1536,4266,2128,2128
1537,4269,2135,2135
1538,4272,2142,2142
1539,4275,2148,2148
1540,4277,2152,2152
1541,4280,2156,2156
1542,4283,2158,2158
1543,4286,2159,2159
1544,4288,2157,2157
1545,4291,2155,2155
1546,4294,2151,2151
1547,4297,2145,2145
1548,4300,2138,2138
1549,4302,2131,2131
1550,4305,2123,2123
1551,4308,2115,2115
1552,4311,2107,2107
1553,4313,2099,2099
1554,4316,2091,2091
1555,4319,2084,2084
1556,4322,2078,2078
1557,4325,2072,2072
1558,4327,2067,2067
1559,4330,2063,2063
1560,4333,2059,2059
1561,4336,2056,2056
1562,4338,2053,2053
1563,4341,2051,2051
1564,4344,2049,2049
1565,4347,2047,2047
1566,4350,2045,2045
1567,4352,2044,2044
1568,4355,2042,2042
1569,4358,2041,2041
1570,4361,2040,2040
1571,4363,2039,2039
1572,4366,2038,2038
1573,4369,2037,2037
1574,4372,2037,2037
1575,4375,2036,2036
1576,4377,2035,2035
1577,4380,2035,2035
1578,4383,2035,2035
1579,4386,2035,2035
1580,4388,2035,2035
1581,4391,2035,2035
1582,4394,2036,2036
1583,4397,2036,2036
1584,4400,2037,2037
1585,4402,2038,2038
1586,4405,2039,2039
1587,4408,2040,2040
1588,4411,2042,2042
1589,4413,2048,2048
1590,4416,2050,2050
1591,4419,2052,2052
1592,4422,2054,2054
1593,4425,2056,2056
1594,4427,2058,2058
1595,4430,2060,2060
1596,4433,2062,2062
1597,4436,2063,2063
1598,4438,2064,2064
1599,4441,2065,2065
1600,4444,2066,2066
1601,4447,2066,2066
1602,4450,2067,2067
1603,4452,2067,2067
1604,4455,2067,2067
1605,4458,2066,2066
1606,4461,2066,2066
1607,4463,2065,2065
1608,4466,2064,2064
1609,4469,2063,2063
1610,4472,2061,2061
1611,4475,2060,2060
1612,4477,2058,2058
1613,4480,2057,2057
1614,4483,2055,2055
1615,4486,2053,2053
1616,4488,2052,2052
1617,4491,2050,2050
1618,4494,2049,2049
1619,4497,2047,2047
1620,4500,2046,2046
1621,4502,2044,2044
1622,4505,2043,2043
1623,4508,2042,2042
1624,4511,2041,2041
1625,4513,2040,2040
1626,4516,2040,2040
1627,4519,2039,2039
1628,4522,2039,2039
1629,4525,2039,2039
1630,4527,2039,2039
1631,4530,2039,2039
1632,4533,2039,2039
1633,4536,2039,2039
1634,4538,2040,2040
1635,4541,2040,2040
1636,4544,2040,2040
1637,4547,2041,2041
1638,4550,2041,2041
1639,4552,2042,2042
1640,4555,2042,2042
1641,4558,2043,2043
1642,4561,2043,2043
1643,4563,2044,2044
1644,4566,2044,2044
1645,4569,2044,2044
1646,4572,2044,2044
1647,4575,2044,2044
1648,4577,2045,2045
1649,4580,2045,2045
1650,4583,2044,2044
1651,4586,2044,2044
1652,4588,2044,2044
1653,4591,2044,2044
1654,4594,2044,2044
1655,4597,2044,2044
1656,4600,2043,2043
1657,4602,2043,2043
1658,4605,2043,2043
1659,4608,2043,2043
1660,4611,2043,2043
1661,4613,2043,2043
1662,4616,2043,2043
1663,4619,2044,2044
1664,4622,2044,2044
1665,4625,2045,2045
1666,4627,2045,2045
1667,4630,2046,2046
1668,4633,2045,2045
1669,4636,2039,2039
1670,4638,2031,2031
1671,4641,2022,2022
1672,4644,2033,2033
1673,4647,2081,2081
1674,4650,2165,2165
1675,4652,2277,2277
1676,4655,2405,2405
1677,4658,2530,2530
1678,4661,2624,2624
1679,4663,2660,2660
1680,4666,2626,2626
1681,4669,2533,2533
1682,4672,2409,2409
1683,4675,2281,2281
1684,4677,2168,2168
1685,4680,2072,2072
1686,4683,1996,1996
1687,4686,1942,1942
1688,4688,1914,1914
1689,4691,1928,1928
1690,4694,1962,1962
1691,4697,2000,2000
1692,4700,2030,2030
1693,4702,2047,2047
1694,4705,2054,2054
1695,4708,2056,2056
1696,4711,2055,2055
1697,4713,2053,2053
1698,4716,2051,2051
1699,4719,2049,2049
1700,4722,2047,2047
1701,4725,2044,2044
1702,4727,2042,2042
1703,4730,2040,2040
1704,4733,2038,2038
1705,4736,2037,2037
1706,4738,2035,2035
1707,4741,2033,2033
1708,4744,2032,2032
1709,4747,2031,2031
1710,4750,2030,2030
1711,4752,2029,2029
1712,4755,2028,2028
1713,4758,2028,2028
1714,4761,2028,2028
1715,4763,2028,2028
1716,4766,2029,2029
1717,4769,2030,2030
1718,4772,2030,2030
1719,4775,2032,2032
1720,4777,2033,2033
1721,4780,2034,2034
1722,4783,2036,2036
1723,4786,2038,2038
1724,4788,2040,2040
1725,4791,2041,2041
1726,4794,2043,2043
1727,4797,2046,2046
1728,4800,2048,2048
1729,4802,2051,2051
1730,4805,2053,2053
1731,4808,2056,2056
1732,4811,2059,2059
1733,4813,2062,2062
1734,4816,2066,2066
1735,4819,2070,2070
1736,4822,2074,2074
1737,4825,2079,2079
1738,4827,2085,2085
1739,4830,2091,2091
1740,4833,2097,2097
1741,4836,2104,2104
1742,4838,2112,2112
1743,4841,2120,2120
1744,4844,2128,2128
1745,4847,2135,2135
1746,4850,2143,2143
1747,4852,2149,2149
1748,4855,2155,2155
1749,4858,2160,2160
1750,4861,2163,2163
1751,4863,2048,2048
1752,4866,2050,2050
1753,4869,2052,2052
1754,4872,2054,2054
1755,4875,2056,2056
1756,4877,2058,2058
1757,4880,2060,2060
1758,4883,2062,2062
1759,4886,2063,2063
1760,4888,2064,2064
1761,4891,2065,2065
1762,4894,2066,2066
1763,4897,2066,2066
1764,4900,2067,2067
1765,4902,2067,2067
1766,4905,2067,2067
1767,4908,2066,2066
1768,4911,2066,2066
1769,4913,2065,2065
1770,4916,2064,2064
1771,4919,2063,2063
1772,4922,2061,2061
1773,4925,2060,2060
1774,4927,2058,2058
1775,4930,2057,2057
1776,4933,2055,2055
1777,4936,2053,2053
1778,4938,2052,2052
1779,4941,2050,2050
1780,4944,2049,2049
1781,4947,2047,2047
1782,4950,2046,2046
1783,4952,2044,2044
1784,4955,2043,2043
1785,4958,2042,2042
1786,4961,2041,2041
1787,4963,2040,2040
1788,4966,2040,2040
1789,4969,2039,2039
1790,4972,2039,2039
1791,4975,2039,2039
1792,4977,2039,2039
1793,4980,2039,2039
1794,4983,2039,2039
1795,4986,2039,2039
1796,4988,2040,2040
1797,4991,2040,2040
1798,4994,2040,2040
1799,4997,2041,2041
1800,5000,2041,2041
1801,5002,2042,2042
1802,5005,2042,2042
1803,5008,2043,2043
1804,5011,2043,2043
1805,5013,2044,2044
1806,5016,2044,2044
1807,5019,2044,2044
1808,5022,2044,2044
1809,5025,2044,2044
1810,5027,2045,2045
1811,5030,2045,2045
1812,5033,2044,2044
1813,5036,2044,2044
1814,5038,2044,2044
1815,5041,2044,2044
1816,5044,2044,2044
1817,5047,2044,2044
1818,5050,2043,2043
1819,5052,2043,2043
1820,5055,2043,2043
1821,5058,2043,2043
1822,5061,2043,2043
1823,5063,2043,2043
1824,5066,2043,2043
1825,5069,2044,2044
1826,5072,2044,2044
1827,5075,2044,2044
1828,5077,2043,2043
1829,5080,2037,2037
1830,5083,2029,2029
1831,5086,2020,2020
1832,5088,2031,2031
1833,5091,2079,2079
1834,5094,2163,2163
1835,5097,2274,2274
1836,5100,2402,2402
1837,5102,2527,2527
1838,5105,2622,2622
1839,5108,2658,2658
1840,5111,2624,2624
1841,5113,2531,2531
1842,5116,2407,2407
1843,5119,2280,2280
1844,5122,2167,2167
1845,5125,2072,2072
1846,5127,1995,1995
1847,5130,1942,1942
1848,5133,1914,1914
1849,5136,1928,1928
1850,5138,1963,1963
1851,5141,2002,2002
1852,5144,2032,2032
1853,5147,2049,2049
1854,5150,2057,2057
1855,5152,2060,2060
1856,5155,2058,2058
1857,5158,2056,2056
1858,5161,2055,2055
1859,5163,2053,2053
1860,5166,2051,2051
1861,5169,2049,2049
1862,5172,2047,2047
1863,5175,2044,2044
1864,5177,2042,2042
1865,5180,2040,2040
1866,5183,2038,2038
1867,5186,2037,2037
1868,5188,2035,2035
1869,5191,2033,2033
1870,5194,2032,2032
1871,5197,2031,2031
1872,5200,2030,2030
1873,5202,2029,2029
1874,5205,2028,2028
1875,5208,2028,2028
1876,5211,2028,2028
1877,5213,2028,2028
1878,5216,2029,2029
1879,5219,2030,2030
1880,5222,2030,2030
1881,5225,2032,2032
1882,5227,2033,2033
1883,5230,2034,2034
1884,5233,2036,2036
1885,5236,2038,2038
1886,5238,2040,2040
1887,5241,2043,2043
1888,5244,2045,2045
1889,5247,2048,2048
1890,5250,2051,2051
1891,5252,2054,2054
1892,5255,2058,2058
1893,5258,2061,2061
1894,5261,2066,2066
1895,5263,2071,2071
1896,5266,2076,2076
1897,5269,2082,2082
1898,5272,2089,2089
1899,5275,2096,2096
1900,5277,2104,2104
1901,5280,2112,2112
1902,5283,2120,2120
1903,5286,2128,2128
1904,5288,2136,2136
1905,5291,2144,2144
1906,5294,2151,2151
1907,5297,2157,2157
1908,5300,2162,2162
1909,5302,2165,2165
1910,5305,2167,2167
1911,5308,2048,2048
1912,5311,2050,2050
1913,5313,2052,2052
1914,5316,2054,2054
1915,5319,2056,2056
1916,5322,2058,2058
1917,5325,2060,2060
1918,5327,2062,2062
1919,5330,2063,2063
1920,5333,2064,2064
1921,5336,2065,2065
1922,5338,2066,2066
1923,5341,2066,2066
1924,5344,2067,2067
1925,5347,2067,2067
1926,5350,2067,2067
1927,5352,2066,2066
1928,5355,2066,2066
1929,5358,2065,2065
1930,5361,2064,2064
1931,5363,2063,2063
1932,5366,2061,2061
1933,5369,2060,2060
1934,5372,2058,2058
1935,5375,2057,2057
1936,5377,2055,2055
1937,5380,2053,2053
1938,5383,2052,2052
1939,5386,2050,2050
1940,5388,2049,2049
1941,5391,2047,2047
1942,5394,2046,2046
1943,5397,2044,2044
1944,5400,2043,2043
1945,5402,2042,2042
1946,5405,2041,2041
1947,5408,2040,2040
1948,5411,2040,2040
1949,5413,2039,2039
1950,5416,2039,2039
1951,5419,2039,2039
1952,5422,2039,2039
1953,5425,2039,2039
1954,5427,2039,2039
1955,5430,2039,2039
1956,5433,2040,2040
1957,5436,2040,2040
1958,5438,2040,2040
1959,5441,2041,2041
1960,5444,2041,2041
1961,5447,2042,2042
1962,5450,2042,2042
1963,5452,2043,2043
1964,5455,2043,2043
1965,5458,2044,2044
1966,5461,2044,2044
1967,5463,2044,2044
1968,5466,2044,2044
1969,5469,2044,2044
1970,5472,2045,2045
1971,5475,2045,2045
1972,5477,2044,2044
1973,5480,2044,2044
1974,5483,2044,2044
1975,5486,2044,2044
1976,5488,2044,2044
1977,5491,2044,2044
1978,5494,2043,2043
1979,5497,2043,2043
1980,5500,2043,2043
1981,5502,2043,2043
1982,5505,2043,2043
1983,5508,2043,2043
1984,5511,2043,2043
1985,5513,2044,2044
1986,5516,2044,2044
1987,5519,2045,2045
1988,5522,2045,2045
1989,5525,2046,2046
1990,5527,2047,2047
1991,5530,2048,2048
1992,5533,2048,2048
1993,5536,2048,2048
1994,5538,2042,2042
1995,5541,2034,2034
1996,5544,2026,2026
1997,5547,2037,2037
1998,5550,2085,2085
1999,5552,2169,2169
2000,5555,2281,2281
2001,5558,2408,2408
2002,5561,2534,2534
2003,5563,2627,2627
2004,5566,2663,2663
2005,5569,2629,2629
2006,5572,2535,2535
2007,5575,2410,2410
2008,5577,2282,2282
2009,5580,2168,2168
2010,5583,2072,2072
2011,5586,1995,1995
2012,5588,1940,1940
2013,5591,1912,1912
2014,5594,1925,1925
2015,5597,1958,1958
2016,5600,1996,1996
2017,5602,2026,2026
2018,5605,2042,2042
2019,5608,2048,2048
2020,5611,2051,2051
2021,5613,2049,2049
2022,5616,2047,2047
2023,5619,2044,2044
2024,5622,2042,2042
2025,5625,2040,2040
2026,5627,2038,2038
2027,5630,2037,2037
2028,5633,2035,2035
2029,5636,2033,2033
2030,5638,2032,2032
2031,5641,2031,2031
2032,5644,2030,2030
2033,5647,2029,2029
2034,5650,2028,2028
2035,5652,2028,2028
2036,5655,2028,2028
2037,5658,2028,2028
2038,5661,2029,2029
2039,5663,2030,2030
2040,5666,2030,2030
2041,5669,2032,2032
2042,5672,2033,2033
2043,5675,2034,2034
2044,5677,2036,2036
2045,5680,2038,2038
2046,5683,2040,2040
2047,5686,2041,2041
2048,5688,2043,2043
2049,5691,2045,2045
2050,5694,2047,2047
2051,5697,2049,2049
2052,5700,2051,2051
2053,5702,2053,2053
2054,5705,2054,2054
2055,5708,2056,2056
2056,5711,2058,2058
2057,5713,2059,2059
2058,5716,2061,2061
2059,5719,2062,2062
2060,5722,2064,2064
2061,5725,2066,2066
2062,5727,2068,2068
2063,5730,2070,2070
2064,5733,2073,2073
2065,5736,2076,2076
2066,5738,2080,2080
2067,5741,2084,2084
2068,5744,2089,2089
2069,5747,2095,2095
2070,5750,2101,2101
2071,5752,2108,2108
2072,5755,2115,2115
2073,5758,2122,2122
2074,5761,2130,2130
2075,5763,2137,2137
2076,5766,2143,2143
2077,5769,2149,2149
2078,5772,2154,2154
2079,5775,2157,2157
2080,5777,2159,2159
2081,5780,2159,2159
2082,5783,2158,2158
2083,5786,2048,2048
2084,5788,2050,2050
2085,5791,2052,2052
2086,5794,2054,2054
2087,5797,2056,2056
2088,5800,2058,2058
2089,5802,2060,2060
2090,5805,2062,2062
2091,5808,2063,2063
2092,5811,2064,2064
2093,5813,2065,2065
2094,5816,2066,2066
2095,5819,2066,2066
2096,5822,2067,2067
2097,5825,2067,2067
2098,5827,2067,2067
2099,5830,2066,2066
2100,5833,2066,2066
2101,5836,2065,2065
2102,5838,2064,2064
2103,5841,2063,2063
2104,5844,2061,2061
2105,5847,2060,2060
2106,5850,2058,2058
2107,5852,2057,2057
2108,5855,2055,2055
2109,5858,2053,2053
2110,5861,2052,2052
2111,5863,2050,2050
2112,5866,2049,2049
2113,5869,2047,2047
2114,5872,2046,2046
2115,5875,2044,2044
2116,5877,2043,2043
2117,5880,2042,2042
2118,5883,2041,2041
2119,5886,2040,2040
2120,5888,2040,2040
2121,5891,2039,2039
2122,5894,2039,2039
2123,5897,2039,2039
2124,5900,2039,2039
2125,5902,2039,2039
2126,5905,2039,2039
2127,5908,2039,2039
2128,5911,2040,2040
2129,5913,2040,2040
2130,5916,2040,2040
2131,5919,2041,2041
2132,5922,2041,2041
2133,5925,2042,2042
2134,5927,2042,2042
2135,5930,2043,2043
2136,5933,2043,2043
2137,5936,2044,2044
2138,5938,2044,2044
2139,5941,2044,2044
2140,5944,2044,2044
2141,5947,2044,2044
2142,5950,2045,2045
2143,5952,2045,2045
2144,5955,2044,2044
2145,5958,2044,2044
2146,5961,2044,2044
2147,5963,2044,2044
2148,5966,2044,2044
2149,5969,2044,2044
2150,5972,2043,2043
2151,5975,2043,2043
2152,5977,2043,2043
2153,5980,2043,2043
2154,5983,2043,2043
2155,5986,2043,2043
2156,5988,2041,2041
2157,5991,2035,2035
2158,5994,2026,2026
2159,5997,2017,2017
2160,6000,2027,2027
2161,6002,2075,2075
2162,6005,2159,2159
2163,6008,2270,2270
2164,6011,2397,2397
2165,6013,2522,2522
2166,6016,2616,2616
2167,6019,2652,2652
2168,6022,2619,2619
2169,6025,2526,2526
2170,6027,2402,2402
2171,6030,2276,2276
2172,6033,2163,2163
2173,6036,2068,2068
2174,6038,1992,1992
2175,6041,1939,1939
2176,6044,1913,1913
2177,6047,1928,1928
2178,6050,1963,1963
2179,6052,2003,2003
2180,6055,2034,2034
2181,6058,2052,2052
2182,6061,2060,2060
2183,6063,2064,2064
2184,6066,2063,2063
2185,6069,2062,2062
2186,6072,2061,2061
2187,6075,2060,2060
2188,6077,2058,2058
2189,6080,2056,2056
2190,6083,2055,2055
2191,6086,2053,2053
2192,6088,2051,2051
2193,6091,2049,2049
2194,6094,2047,2047
2195,6097,2044,2044
2196,6100,2042,2042
2197,6102,2040,2040
2198,6105,2038,2038
2199,6108,2037,2037
2200,6111,2035,2035
2201,6113,2033,2033
2202,6116,2032,2032
2203,6119,2031,2031
2204,6122,2030,2030
2205,6125,2029,2029
2206,6127,2028,2028
2207,6130,2028,2028
2208,6133,2028,2028
2209,6136,2028,2028
2210,6138,2029,2029
2211,6141,2030,2030
2212,6144,2031,2031
2213,6147,2033,2033
2214,6150,2035,2035
2215,6152,2037,2037
2216,6155,2040,2040
2217,6158,2043,2043
2218,6161,2046,2046
2219,6163,2050,2050
2220,6166,2055,2055
2221,6169,2060,2060
2222,6172,2066,2066
2223,6175,2073,2073
2224,6177,2081,2081
2225,6180,2089,2089
2226,6183,2097,2097
2227,6186,2106,2106
2228,6188,2116,2116
2229,6191,2125,2125
2230,6194,2134,2134
2231,6197,2143,2143
2232,6200,2151,2151
2233,6202,2158,2158
2234,6205,2164,2164
2235,6208,2168,2168
2236,6211,2170,2170
2237,6213,2171,2171
2238,6216,2170,2170
2239,6219,2048,2048
2240,6222,2050,2050
2241,6225,2052,2052
2242,6227,2054,2054
2243,6230,2056,2056
2244,6233,2058,2058
2245,6236,2060,2060
2246,6238,2062,2062
2247,6241,2063,2063
2248,6244,2064,2064
2249,6247,2065,2065
2250,6250,2066,2066
2251,6252,2066,2066
2252,6255,2067,2067
2253,6258,2067,2067
2254,6261,2067,2067
2255,6263,2066,2066
2256,6266,2066,2066
2257,6269,2065,2065
2258,6272,2064,2064
2259,6275,2063,2063
2260,6277,2061,2061
2261,6280,2060,2060
2262,6283,2058,2058
2263,6286,2057,2057
2264,6288,2055,2055
2265,6291,2053,2053
2266,6294,2052,2052
2267,6297,2050,2050
2268,6300,2049,2049
2269,6302,2047,2047
2270,6305,2046,2046
2271,6308,2044,2044
2272,6311,2043,2043
2273,6313,2042,2042
2274,6316,2041,2041
2275,6319,2040,2040
2276,6322,2040,2040
2277,6325,2039,2039
2278,6327,2039,2039
2279,6330,2039,2039
2280,6333,2039,2039
2281,6336,2039,2039
2282,6338,2039,2039
2283,6341,2039,2039
2284,6344,2040,2040
2285,6347,2040,2040
2286,6350,2040,2040
2287,6352,2041,2041
2288,6355,2041,2041
2289,6358,2042,2042
2290,6361,2042,2042
2291,6363,2043,2043
2292,6366,2043,2043
2293,6369,2044,2044
2294,6372,2044,2044
2295,6375,2044,2044
2296,6377,2044,2044
2297,6380,2044,2044
2298,6383,2045,2045
2299,6386,2045,2045
2300,6388,2044,2044
2301,6391,2044,2044
2302,6394,2044,2044
2303,6397,2044,2044
2304,6400,2044,2044
2305,6402,2044,2044
2306,6405,2043,2043
2307,6408,2043,2043
2308,6411,2043,2043
2309,6413,2043,2043
2310,6416,2043,2043
2311,6419,2043,2043
2312,6422,2043,2043
2313,6425,2044,2044
2314,6427,2044,2044
2315,6430,2045,2045
2316,6433,2045,2045
2317,6436,2046,2046
2318,6438,2047,2047
2319,6441,2048,2048
2320,6444,2048,2048
2321,6447,2048,2048
2322,6450,2042,2042
2323,6452,2034,2034
2324,6455,2026,2026
2325,6458,2037,2037
2326,6461,2085,2085
2327,6463,2169,2169
2328,6466,2281,2281
2329,6469,2408,2408
2330,6472,2534,2534
2331,6475,2627,2627
2332,6477,2663,2663
2333,6480,2629,2629
2334,6483,2535,2535
2335,6486,2410,2410
2336,6488,2282,2282
2337,6491,2168,2168
2338,6494,2072,2072
2339,6497,1995,1995
2340,6500,1940,1940
2341,6502,1912,1912
2342,6505,1925,1925
2343,6508,1958,1958
2344,6511,1996,1996
2345,6513,2026,2026
2346,6516,2042,2042
2347,6519,2048,2048
2348,6522,2051,2051
2349,6525,2049,2049
2350,6527,2047,2047
2351,6530,2044,2044
2352,6533,2042,2042
2353,6536,2040,2040
2354,6538,2038,2038
2355,6541,2037,2037
2356,6544,2035,2035
2357,6547,2033,2033
2358,6550,2032,2032
2359,6552,2031,2031
2360,6555,2030,2030
2361,6558,2029,2029
2362,6561,2028,2028
2363,6563,2028,2028
2364,6566,2028,2028
2365,6569,2028,2028
2366,6572,2029,2029
2367,6575,2030,2030
2368,6577,2030,2030
2369,6580,2032,2032
2370,6583,2033,2033
2371,6586,2034,2034
2372,6588,2036,2036
2373,6591,2038,2038
2374,6594,2040,2040
2375,6597,2041,2041
2376,6600,2043,2043
2377,6602,2045,2045
2378,6605,2047,2047
2379,6608,2049,2049
2380,6611,2051,2051
2381,6613,2053,2053
2382,6616,2054,2054
2383,6619,2056,2056
2384,6622,2057,2057
2385,6625,2058,2058
2386,6627,2060,2060
2387,6630,2061,2061
2388,6633,2062,2062
2389,6636,2064,2064
2390,6638,2065,2065
2391,6641,2066,2066
2392,6644,2068,2068
2393,6647,2070,2070
2394,6650,2072,2072
2395,6652,2075,2075
2396,6655,2079,2079
2397,6658,2083,2083
2398,6661,2088,2088
2399,6663,2093,2093
2400,6666,2099,2099
2401,6669,2106,2106
2402,6672,2113,2113
2403,6675,2121,2121
2404,6677,2128,2128
2405,6680,2135,2135
2406,6683,2142,2142
2407,6686,2148,2148
2408,6688,2152,2152
2409,6691,2156,2156
2410,6694,2158,2158
2411,6697,2159,2159
2412,6700,2157,2157
2413,6702,2155,2155
2414,6705,2151,2151
2415,6708,2145,2145
2416,6711,2138,2138
2417,6713,2131,2131
2418,6716,2123,2123
2419,6719,2115,2115
2420,6722,2107,2107
2421,6725,2099,2099
2422,6727,2091,2091
2423,6730,2084,2084
2424,6733,2078,2078
2425,6736,2072,2072
2426,6738,2067,2067
2427,6741,2063,2063
2428,6744,2059,2059
2429,6747,2056,2056
2430,6750,2053,2053
2431,6752,2051,2051
2432,6755,2049,2049
2433,6758,2047,2047
2434,6761,2045,2045
2435,6763,2044,2044
2436,6766,2042,2042
2437,6769,2041,2041
2438,6772,2040,2040
2439,6775,2039,2039
2440,6777,2038,2038
2441,6780,2037,2037
2442,6783,2037,2037
2443,6786,2036,2036
2444,6788,2035,2035
2445,6791,2035,2035
2446,6794,2035,2035
2447,6797,2035,2035
2448,6800,2048,2048
2449,6802,2050,2050
2450,6805,2052,2052
2451,6808,2054,2054
2452,6811,2056,2056
2453,6813,2058,2058
2454,6816,2060,2060
2455,6819,2062,2062
2456,6822,2063,2063
2457,6825,2064,2064
2458,6827,2065,2065
2459,6830,2066,2066
2460,6833,2066,2066
2461,6836,2067,2067
2462,6838,2067,2067
2463,6841,2067,2067
2464,6844,2066,2066
2465,6847,2066,2066
2466,6850,2065,2065
2467,6852,2064,2064
2468,6855,2063,2063
2469,6858,2061,2061
2470,6861,2060,2060
2471,6863,2058,2058
2472,6866,2057,2057
2473,6869,2055,2055
2474,6872,2053,2053
2475,6875,2052,2052
2476,6877,2050,2050
2477,6880,2049,2049
2478,6883,2047,2047
2479,6886,2046,2046
2480,6888,2044,2044
2481,6891,2043,2043
2482,6894,2042,2042
2483,6897,2041,2041
2484,6900,2040,2040
2485,6902,2040,2040
2486,6905,2039,2039
2487,6908,2039,2039
2488,6911,2039,2039
2489,6913,2039,2039
2490,6916,2039,2039
2491,6919,2039,2039
2492,6922,2039,2039
2493,6925,2040,2040
2494,6927,2040,2040
2495,6930,2040,2040
2496,6933,2041,2041
2497,6936,2041,2041
2498,6938,2042,2042
2499,6941,2042,2042
2500,6944,2043,2043
2501,6947,2043,2043
2502,6950,2044,2044
2503,6952,2044,2044
2504,6955,2044,2044
2505,6958,2044,2044
2506,6961,2044,2044
2507,6963,2045,2045
2508,6966,2045,2045
2509,6969,2044,2044
2510,6972,2044,2044
2511,6975,2044,2044
2512,6977,2044,2044
2513,6980,2044,2044
2514,6983,2044,2044
2515,6986,2043,2043
2516,6988,2043,2043
2517,6991,2043,2043
2518,6994,2043,2043
2519,6997,2043,2043
2520,7000,2043,2043
2521,7002,2043,2043
2522,7005,2044,2044
2523,7008,2044,2044
2524,7011,2045,2045
2525,7013,2045,2045
2526,7016,2046,2046
2527,7019,2047,2047
2528,7022,2047,2047
2529,7025,2047,2047
2530,7027,2041,2041
2531,7030,2033,2033
2532,7033,2024,2024
2533,7036,2036,2036
2534,7038,2084,2084
2535,7041,2168,2168
2536,7044,2280,2280
2537,7047,2407,2407
2538,7050,2532,2532
2539,7052,2626,2626
2540,7055,2662,2662
2541,7058,2628,2628
2542,7061,2535,2535
2543,7063,2410,2410
2544,7066,2282,2282
2545,7069,2168,2168
2546,7072,2073,2073
2547,7075,1995,1995
2548,7077,1941,1941
2549,7080,1913,1913
2550,7083,1926,1926
2551,7086,1960,1960
2552,7088,1998,1998
2553,7091,2027,2027
2554,7094,2044,2044
2555,7097,2050,2050
2556,7100,2053,2053
2557,7102,2051,2051
2558,7105,2049,2049
2559,7108,2047,2047
2560,7111,2044,2044
2561,7113,2042,2042
2562,7116,2040,2040
2563,7119,2038,2038
2564,7122,2037,2037
2565,7125,2035,2035
2566,7127,2033,2033
2567,7130,2032,2032
2568,7133,2031,2031
2569,7136,2030,2030
2570,7138,2029,2029
2571,7141,2028,2028
2572,7144,2028,2028
2573,7147,2028,2028
2574,7150,2028,2028
2575,7152,2029,2029
2576,7155,2030,2030
2577,7158,2030,2030
2578,7161,2032,2032
2579,7163,2033,2033
2580,7166,2034,2034
2581,7169,2036,2036
2582,7172,2038,2038
2583,7175,2040,2040
2584,7177,2041,2041
2585,7180,2043,2043
2586,7183,2045,2045
2587,7186,2047,2047
2588,7188,2050,2050
2589,7191,2052,2052
2590,7194,2054,2054
2591,7197,2057,2057
2592,7200,2059,2059
2593,7202,2062,2062
2594,7205,2065,2065
2595,7208,2068,2068
2596,7211,2072,2072
2597,7213,2076,2076
2598,7216,2080,2080
2599,7219,2085,2085
2600,7222,2091,2091
2601,7225,2097,2097
2602,7227,2104,2104
2603,7230,2111,2111
2604,7233,2119,2119
2605,7236,2126,2126
2606,7238,2134,2134
2607,7241,2141,2141
2608,7244,2148,2148
2609,7247,2153,2153
2610,7250,2158,2158
2611,7252,2161,2161
2612,7255,2048,2048
2613,7258,2050,2050
2614,7261,2052,2052
2615,7263,2054,2054
2616,7266,2056,2056
2617,7269,2058,2058
2618,7272,2060,2060
2619,7275,2062,2062
2620,7277,2063,2063
2621,7280,2064,2064
2622,7283,2065,2065
2623,7286,2066,2066
2624,7288,2066,2066
2625,7291,2067,2067
2626,7294,2067,2067
2627,7297,2067,2067
2628,7300,2066,2066
2629,7302,2066,2066
2630,7305,2065,2065
2631,7308,2064,2064
2632,7311,2063,2063
2633,7313,2061,2061
2634,7316,2060,2060
2635,7319,2058,2058
2636,7322,2057,2057
2637,7325,2055,2055
2638,7327,2053,2053
2639,7330,2052,2052
2640,7333,2050,2050
2641,7336,2049,2049
2642,7338,2047,2047
2643,7341,2046,2046
2644,7344,2044,2044
2645,7347,2043,2043
2646,7350,2042,2042
2647,7352,2041,2041
2648,7355,2040,2040
2649,7358,2040,2040
2650,7361,2039,2039
2651,7363,2039,2039
2652,7366,2039,2039
2653,7369,2039,2039
2654,7372,2039,2039
2655,7375,2039,2039
2656,7377,2039,2039
2657,7380,2040,2040
2658,7383,2040,2040
2659,7386,2040,2040
2660,7388,2041,2041
2661,7391,2041,2041
2662,7394,2042,2042
2663,7397,2042,2042
2664,7400,2043,2043
2665,7402,2043,2043
2666,7405,2044,2044
2667,7408,2044,2044
2668,7411,2044,2044
2669,7413,2044,2044
2670,7416,2044,2044
2671,7419,2045,2045
2672,7422,2045,2045
2673,7425,2044,2044
2674,7427,2044,2044
2675,7430,2044,2044
2676,7433,2044,2044
2677,7436,2044,2044
2678,7438,2044,2044
2679,7441,2043,2043
2680,7444,2043,2043
2681,7447,2043,2043
2682,7450,2043,2043
2683,7452,2043,2043
2684,7455,2043,2043
2685,7458,2043,2043
2686,7461,2043,2043
2687,7463,2042,2042
2688,7466,2036,2036
2689,7469,2027,2027
2690,7472,2018,2018
2691,7475,2029,2029
2692,7477,2076,2076
2693,7480,2161,2161
2694,7483,2272,2272
2695,7486,2399,2399
2696,7488,2525,2525
2697,7491,2619,2619
2698,7494,2655,2655
2699,7497,2622,2622
2700,7500,2529,2529
2701,7502,2405,2405
2702,7505,2278,2278
2703,7508,2165,2165
2704,7511,2070,2070
2705,7513,1994,1994
2706,7516,1941,1941
2707,7519,1914,1914
2708,7522,1928,1928
2709,7525,1963,1963
2710,7527,2003,2003
2711,7530,2033,2033
2712,7533,2051,2051
2713,7536,2059,2059
2714,7538,2062,2062
2715,7541,2061,2061
2716,7544,2060,2060
2717,7547,2058,2058
2718,7550,2056,2056
2719,7552,2055,2055
2720,7555,2053,2053
2721,7558,2051,2051
2722,7561,2049,2049
2723,7563,2047,2047
2724,7566,2044,2044
2725,7569,2042,2042
2726,7572,2040,2040
2727,7575,2038,2038
2728,7577,2037,2037
2729,7580,2035,2035
2730,7583,2033,2033
2731,7586,2032,2032
2732,7588,2031,2031
2733,7591,2030,2030
2734,7594,2029,2029
2735,7597,2028,2028
2736,7600,2028,2028
2737,7602,2028,2028
2738,7605,2028,2028
2739,7608,2029,2029
2740,7611,2030,2030
2741,7613,2030,2030
2742,7616,2032,2032
2743,7619,2033,2033
2744,7622,2035,2035
2745,7625,2037,2037
2746,7627,2040,2040
2747,7630,2042,2042
2748,7633,2045,2045
2749,7636,2048,2048
2750,7638,2052,2052
2751,7641,2056,2056
2752,7644,2061,2061
2753,7647,2066,2066
2754,7650,2072,2072
2755,7652,2078,2078
2756,7655,2085,2085
2757,7658,2093,2093
2758,7661,2101,2101
2759,7663,2110,2110
2760,7666,2119,2119
2761,7669,2128,2128
2762,7672,2136,2136
2763,7675,2144,2144
2764,7677,2152,2152
2765,7680,2158,2158
2766,7683,2164,2164
2767,7686,2167,2167
2768,7688,2169,2169
2769,7691,2169,2169
2770,7694,2048,2048
2771,7697,2050,2050
2772,7700,2052,2052
2773,7702,2054,2054
2774,7705,2056,2056
2775,7708,2058,2058
2776,7711,2060,2060
2777,7713,2062,2062
2778,7716,2063,2063
2779,7719,2064,2064
2780,7722,2065,2065
2781,7725,2066,2066
2782,7727,2066,2066
2783,7730,2067,2067
2784,7733,2067,2067
2785,7736,2067,2067
2786,7738,2066,2066
2787,7741,2066,2066
2788,7744,2065,2065
2789,7747,2064,2064
2790,7750,2063,2063
2791,7752,2061,2061
2792,7755,2060,2060
2793,7758,2058,2058
2794,7761,2057,2057
2795,7763,2055,2055
2796,7766,2053,2053
2797,7769,2052,2052
2798,7772,2050,2050
2799,7775,2049,2049
2800,7777,2047,2047
2801,7780,2046,2046
2802,7783,2044,2044
2803,7786,2043,2043
2804,7788,2042,2042
2805,7791,2041,2041
2806,7794,2040,2040
2807,7797,2040,2040
2808,7800,2039,2039
2809,7802,2039,2039
2810,7805,2039,2039
2811,7808,2039,2039
2812,7811,2039,2039
2813,7813,2039,2039
2814,7816,2039,2039
2815,7819,2040,2040
2816,7822,2040,2040
2817,7825,2040,2040
2818,7827,2041,2041
2819,7830,2041,2041
2820,7833,2042,2042
2821,7836,2042,2042
2822,7838,2043,2043
2823,7841,2043,2043
2824,7844,2044,2044
2825,7847,2044,2044
2826,7850,2044,2044
2827,7852,2044,2044
2828,7855,2044,2044
2829,7858,2045,2045
2830,7861,2045,2045
2831,7863,2044,2044
2832,7866,2044,2044
2833,7869,2044,2044
2834,7872,2044,2044
2835,7875,2044,2044
2836,7877,2044,2044
2837,7880,2043,2043
2838,7883,2043,2043
2839,7886,2043,2043
2840,7888,2043,2043
2841,7891,2043,2043
2842,7894,2043,2043
2843,7897,2043,2043
2844,7900,2044,2044
2845,7902,2044,2044
2846,7905,2045,2045
2847,7908,2045,2045
2848,7911,2046,2046
2849,7913,2047,2047
2850,7916,2048,2048
2851,7919,2048,2048
2852,7922,2048,2048
2853,7925,2042,2042
2854,7927,2034,2034
2855,7930,2026,2026
2856,7933,2037,2037
2857,7936,2085,2085
2858,7938,2169,2169
2859,7941,2281,2281
2860,7944,2408,2408
2861,7947,2534,2534
2862,7950,2627,2627
2863,7952,2663,2663
2864,7955,2629,2629
2865,7958,2535,2535
2866,7961,2410,2410
2867,7963,2282,2282
2868,7966,2168,2168
2869,7969,2072,2072
2870,7972,1995,1995
2871,7975,1940,1940
2872,7977,1912,1912
2873,7980,1925,1925
2874,7983,1958,1958
2875,7986,1996,1996
2876,7988,2026,2026
2877,7991,2042,2042
2878,7994,2048,2048
2879,7997,2051,2051
2880,8000,2049,2049
2881,8002,2047,2047
2882,8005,2044,2044
2883,8008,2042,2042
2884,8011,2040,2040
2885,8013,2038,2038
2886,8016,2037,2037
2887,8019,2035,2035
2888,8022,2033,2033
2889,8025,2032,2032
2890,8027,2031,2031
2891,8030,2030,2030
2892,8033,2029,2029
2893,8036,2028,2028
2894,8038,2028,2028
2895,8041,2028,2028
2896,8044,2028,2028
2897,8047,2029,2029
2898,8050,2030,2030
2899,8052,2030,2030
2900,8055,2032,2032
2901,8058,2033,2033
2902,8061,2034,2034
2903,8063,2036,2036
2904,8066,2038,2038
2905,8069,2040,2040
2906,8072,2041,2041
2907,8075,2043,2043
2908,8077,2045,2045
2909,8080,2047,2047
2910,8083,2049,2049
2911,8086,2051,2051
2912,8088,2053,2053
2913,8091,2055,2055
2914,8094,2057,2057
2915,8097,2059,2059
2916,8100,2061,2061
2917,8102,2063,2063
2918,8105,2065,2065
2919,8108,2067,2067
2920,8111,2070,2070
2921,8113,2073,2073
2922,8116,2076,2076
2923,8119,2080,2080
2924,8122,2085,2085
2925,8125,2090,2090
2926,8127,2096,2096
2927,8130,2103,2103
2928,8133,2109,2109
2929,8136,2117,2117
2930,8138,2124,2124
2931,8141,2131,2131
2932,8144,2139,2139
2933,8147,2145,2145
2934,8150,2151,2151
2935,8152,2155,2155
2936,8155,2159,2159
2937,8158,2048,2048
2938,8161,2050,2050
2939,8163,2052,2052
2940,8166,2054,2054
2941,8169,2056,2056
2942,8172,2058,2058
2943,8175,2060,2060
2944,8177,2062,2062
2945,8180,2063,2063
2946,8183,2064,2064
2947,8186,2065,2065
2948,8188,2066,2066
2949,8191,2066,2066
2950,8194,2067,2067
2951,8197,2067,2067
2952,8200,2067,2067
2953,8202,2066,2066
2954,8205,2066,2066
2955,8208,2065,2065
2956,8211,2064,2064
2957,8213,2063,2063
2958,8216,2061,2061
2959,8219,2060,2060
2960,8222,2058,2058
2961,8225,2057,2057
2962,8227,2055,2055
2963,8230,2053,2053
2964,8233,2052,2052
2965,8236,2050,2050
2966,8238,2049,2049
2967,8241,2047,2047
2968,8244,2046,2046
2969,8247,2044,2044
2970,8250,2043,2043
2971,8252,2042,2042
2972,8255,2041,2041
2973,8258,2040,2040
2974,8261,2040,2040
2975,8263,2039,2039
2976,8266,2039,2039
2977,8269,2039,2039
2978,8272,2039,2039
2979,8275,2039,2039
2980,8277,2039,2039
2981,8280,2039,2039
2982,8283,2040,2040
2983,8286,2040,2040
2984,8288,2040,2040
2985,8291,2041,2041
2986,8294,2041,2041
2987,8297,2042,2042
2988,8300,2042,2042
2989,8302,2043,2043
2990,8305,2043,2043
2991,8308,2044,2044
2992,8311,2044,2044
2993,8313,2044,2044
2994,8316,2044,2044
2995,8319,2044,2044
2996,8322,2045,2045
2997,8325,2045,2045
2998,8327,2044,2044
2999,8330,2044,2044
3000,8333,2044,2044
3001,8336,2044,2044
3002,8338,2044,2044
3003,8341,2044,2044
3004,8344,2043,2043
3005,8347,2043,2043
3006,8350,2043,2043
3007,8352,2043,2043
3008,8355,2043,2043
3009,8358,2043,2043
3010,8361,2043,2043
3011,8363,2044,2044
3012,8366,2044,2044
3013,8369,2045,2045
3014,8372,2045,2045
3015,8375,2046,2046
3016,8377,2047,2047
3017,8380,2048,2048
3018,8383,2048,2048
3019,8386,2048,2048
3020,8388,2042,2042
3021,8391,2034,2034
3022,8394,2026,2026
3023,8397,2037,2037
3024,8400,2085,2085
3025,8402,2169,2169
3026,8405,2281,2281
3027,8408,2408,2408
3028,8411,2534,2534
3029,8413,2627,2627
3030,8416,2663,2663
3031,8419,2629,2629
3032,8422,2535,2535
3033,8425,2410,2410
3034,8427,2282,2282
3035,8430,2168,2168
3036,8433,2072,2072
3037,8436,1995,1995
3038,8438,1940,1940
3039,8441,1912,1912
3040,8444,1925,1925
3041,8447,1958,1958
3042,8450,1996,1996
3043,8452,2026,2026
3044,8455,2042,2042
3045,8458,2048,2048
3046,8461,2051,2051
3047,8463,2049,2049
3048,8466,2047,2047
3049,8469,2044,2044
3050,8472,2042,2042
3051,8475,2040,2040
3052,8477,2038,2038
3053,8480,2037,2037
3054,8483,2035,2035
3055,8486,2033,2033
3056,8488,2032,2032
3057,8491,2031,2031
3058,8494,2030,2030
3059,8497,2029,2029
3060,8500,2028,2028
3061,8502,2028,2028
3062,8505,2028,2028
3063,8508,2028,2028
3064,8511,2029,2029
3065,8513,2030,2030
3066,8516,2030,2030
3067,8519,2032,2032
3068,8522,2033,2033
3069,8525,2034,2034
3070,8527,2036,2036
3071,8530,2038,2038
3072,8533,2040,2040
3073,8536,2041,2041
3074,8538,2043,2043
3075,8541,2045,2045
3076,8544,2047,2047
3077,8547,2049,2049
3078,8550,2051,2051
3079,8552,2053,2053
3080,8555,2054,2054
3081,8558,2056,2056
3082,8561,2057,2057
3083,8563,2058,2058
3084,8566,2060,2060
3085,8569,2061,2061
3086,8572,2062,2062
3087,8575,2064,2064
3088,8577,2065,2065
3089,8580,2066,2066
3090,8583,2068,2068
3091,8586,2070,2070
3092,8588,2072,2072
3093,8591,2075,2075
3094,8594,2079,2079
3095,8597,2083,2083
3096,8600,2088,2088
3097,8602,2093,2093
3098,8605,2099,2099
3099,8608,2106,2106
3100,8611,2113,2113
3101,8613,2121,2121
3102,8616,2128,2128
3103,8619,2135,2135
3104,8622,2142,2142
3105,8625,2148,2148
3106,8627,2152,2152
3107,8630,2156,2156
3108,8633,2158,2158
3109,8636,2159,2159
3110,8638,2157,2157
3111,8641,2155,2155
3112,8644,2151,2151
3113,8647,2145,2145
3114,8650,2138,2138
3115,8652,2131,2131
3116,8655,2123,2123
3117,8658,2115,2115
3118,8661,2107,2107
3119,8663,2099,2099
3120,8666,2091,2091
3121,8669,2084,2084
3122,8672,2078,2078
3123,8675,2072,2072
3124,8677,2067,2067
3125,8680,2063,2063
3126,8683,2059,2059
3127,8686,2056,2056
3128,8688,2053,2053
3129,8691,2051,2051
3130,8694,2049,2049
3131,8697,2047,2047
3132,8700,2045,2045
3133,8702,2044,2044
3134,8705,2042,2042
3135,8708,2041,2041
3136,8711,2040,2040
3137,8713,2039,2039
3138,8716,2038,2038
3139,8719,2037,2037
3140,8722,2037,2037
3141,8725,2036,2036
3142,8727,2035,2035
3143,8730,2035,2035
3144,8733,2035,2035
3145,8736,2035,2035
3146,8738,2035,2035
3147,8741,2035,2035
3148,8744,2036,2036
3149,8747,2036,2036
3150,8750,2037,2037
3151,8752,2038,2038
3152,8755,2039,2039
3153,8758,2040,2040
3154,8761,2042,2042
3155,8763,2043,2043
3156,8766,2045,2045
3157,8769,2047,2047
3158,8772,2049,2049
3159,8775,2051,2051
3160,8777,2053,2053
3161,8780,2055,2055
3162,8783,2056,2056
3163,8786,2058,2058
3164,8788,2060,2060
3165,8791,2048,2048
3166,8794,2050,2050
3167,8797,2052,2052
3168,8800,2054,2054
3169,8802,2056,2056
3170,8805,2058,2058
3171,8808,2060,2060
3172,8811,2062,2062
3173,8813,2063,2063
3174,8816,2064,2064
3175,8819,2065,2065
3176,8822,2066,2066
3177,8825,2066,2066
3178,8827,2067,2067
3179,8830,2067,2067
3180,8833,2067,2067
3181,8836,2066,2066
3182,8838,2066,2066
3183,8841,2065,2065
3184,8844,2064,2064
3185,8847,2063,2063
3186,8850,2061,2061
3187,8852,2060,2060
3188,8855,2058,2058
3189,8858,2057,2057
3190,8861,2055,2055
3191,8863,2053,2053
3192,8866,2052,2052
3193,8869,2050,2050
3194,8872,2049,2049
3195,8875,2047,2047
3196,8877,2046,2046
3197,8880,2044,2044
3198,8883,2043,2043
3199,8886,2042,2042
3200,8888,2041,2041
3201,8891,2040,2040
3202,8894,2040,2040
3203,8897,2039,2039
3204,8900,2039,2039
3205,8902,2039,2039
3206,8905,2039,2039
3207,8908,2039,2039
3208,8911,2039,2039
3209,8913,2039,2039
3210,8916,2040,2040
3211,8919,2040,2040
3212,8922,2040,2040
3213,8925,2041,2041
3214,8927,2041,2041
3215,8930,2042,2042
3216,8933,2042,2042
3217,8936,2043,2043
3218,8938,2043,2043
3219,8941,2044,2044
3220,8944,2044,2044
3221,8947,2044,2044
3222,8950,2044,2044
3223,8952,2044,2044
3224,8955,2045,2045
3225,8958,2045,2045
3226,8961,2044,2044
3227,8963,2044,2044
3228,8966,2044,2044
3229,8969,2044,2044
3230,8972,2044,2044
3231,8975,2044,2044
3232,8977,2043,2043
3233,8980,2043,2043
3234,8983,2043,2043
3235,8986,2043,2043
3236,8988,2043,2043
3237,8991,2043,2043
3238,8994,2043,2043
3239,8997,2044,2044
3240,9000,2044,2044
3241,9002,2045,2045
3242,9005,2045,2045
3243,9008,2046,2046
3244,9011,2047,2047
3245,9013,2048,2048
3246,9016,2048,2048
3247,9019,2048,2048
3248,9022,2042,2042
3249,9025,2034,2034
3250,9027,2026,2026
3251,9030,2037,2037
3252,9033,2085,2085
3253,9036,2169,2169
3254,9038,2281,2281
3255,9041,2408,2408
3256,9044,2534,2534
3257,9047,2627,2627
3258,9050,2663,2663
3259,9052,2629,2629
3260,9055,2535,2535
3261,9058,2410,2410
3262,9061,2282,2282
3263,9063,2168,2168
3264,9066,2072,2072
3265,9069,1995,1995
3266,9072,1940,1940
3267,9075,1912,1912
3268,9077,1925,1925
3269,9080,1958,1958
3270,9083,1996,1996
3271,9086,2026,2026
3272,9088,2042,2042
3273,9091,2048,2048
3274,9094,2051,2051
3275,9097,2049,2049
3276,9100,2047,2047
3277,9102,2044,2044
3278,9105,2042,2042
3279,9108,2040,2040
3280,9111,2038,2038
3281,9113,2037,2037
3282,9116,2035,2035
3283,9119,2033,2033
3284,9122,2032,2032
3285,9125,2031,2031
3286,9127,2030,2030
3287,9130,2029,2029
3288,9133,2028,2028
3289,9136,2028,2028
3290,9138,2028,2028
3291,9141,2028,2028
3292,9144,2029,2029
3293,9147,2030,2030
3294,9150,2030,2030
3295,9152,2032,2032
3296,9155,2033,2033
3297,9158,2034,2034
3298,9161,2036,2036
3299,9163,2038,2038
3300,9166,2040,2040
3301,9169,2041,2041
3302,9172,2043,2043
3303,9175,2045,2045
3304,9177,2047,2047
3305,9180,2049,2049
3306,9183,2051,2051
3307,9186,2053,2053
3308,9188,2054,2054
3309,9191,2056,2056
3310,9194,2057,2057
3311,9197,2058,2058
3312,9200,2060,2060
3313,9202,2061,2061
3314,9205,2062,2062
3315,9208,2064,2064
3316,9211,2065,2065
3317,9213,2066,2066
3318,9216,2068,2068
3319,9219,2070,2070
3320,9222,2072,2072
3321,9225,2075,2075
3322,9227,2079,2079
3323,9230,2083,2083
3324,9233,2088,2088
3325,9236,2093,2093
3326,9238,2099,2099
3327,9241,2106,2106
3328,9244,2113,2113
3329,9247,2121,2121
3330,9250,2128,2128
3331,9252,2135,2135
3332,9255,2142,2142
3333,9258,2148,2148
3334,9261,2152,2152
3335,9263,2156,2156
3336,9266,2158,2158
3337,9269,2159,2159
3338,9272,2157,2157
3339,9275,2155,2155
3340,9277,2151,2151
3341,9280,2145,2145
3342,9283,2138,2138
3343,9286,2131,2131
3344,9288,2123,2123
3345,9291,2115,2115
3346,9294,2107,2107
3347,9297,2099,2099
3348,9300,2091,2091
3349,9302,2084,2084
3350,9305,2078,2078
3351,9308,2072,2072
3352,9311,2067,2067
3353,9313,2063,2063
3354,9316,2059,2059
3355,9319,2056,2056
3356,9322,2053,2053
3357,9325,2051,2051
3358,9327,2049,2049
3359,9330,2047,2047
3360,9333,2045,2045
3361,9336,2044,2044
3362,9338,2042,2042
3363,9341,2041,2041
3364,9344,2040,2040
3365,9347,2039,2039
3366,9350,2038,2038
3367,9352,2037,2037
3368,9355,2037,2037
3369,9358,2036,2036
3370,9361,2035,2035
3371,9363,2035,2035
3372,9366,2035,2035
3373,9369,2035,2035
3374,9372,2035,2035
3375,9375,2035,2035
3376,9377,2036,2036
3377,9380,2036,2036
3378,9383,2037,2037
3379,9386,2038,2038
3380,9388,2039,2039
3381,9391,2040,2040
3382,9394,2042,2042
3383,9397,2043,2043
3384,9400,2045,2045
3385,9402,2047,2047
3386,9405,2049,2049
3387,9408,2051,2051
3388,9411,2053,2053
3389,9413,2055,2055
3390,9416,2056,2056
3391,9419,2058,2058
3392,9422,2060,2060
3393,9425,2062,2062
3394,9427,2063,2063
3395,9430,2064,2064
3396,9433,2066,2066
3397,9436,2066,2066
3398,9438,2067,2067
3399,9441,2068,2068
3400,9444,2068,2068
3401,9447,2068,2068
3402,9450,2068,2068
3403,9452,2067,2067
3404,9455,2066,2066
3405,9458,2065,2065
3406,9461,2064,2064
3407,9463,2063,2063
3408,9466,2061,2061
3409,9469,2059,2059
3410,9472,2058,2058
3411,9475,2056,2056
3412,9477,2054,2054
3413,9480,2052,2052
3414,9483,2049,2049
3415,9486,2047,2047
3416,9488,2048,2048
3417,9491,2050,2050
3418,9494,2052,2052
3419,9497,2054,2054
3420,9500,2056,2056
3421,9502,2058,2058
3422,9505,2060,2060
3423,9508,2062,2062
3424,9511,2063,2063
3425,9513,2064,2064
3426,9516,2065,2065
3427,9519,2066,2066
3428,9522,2066,2066
3429,9525,2067,2067
3430,9527,2067,2067
3431,9530,2067,2067
3432,9533,2066,2066
3433,9536,2066,2066
3434,9538,2065,2065
3435,9541,2064,2064
3436,9544,2063,2063
3437,9547,2061,2061
3438,9550,2060,2060
3439,9552,2058,2058
3440,9555,2057,2057
3441,9558,2055,2055
3442,9561,2053,2053
3443,9563,2052,2052
3444,9566,2050,2050
3445,9569,2049,2049
3446,9572,2047,2047
3447,9575,2046,2046
3448,9577,2044,2044
3449,9580,2043,2043
3450,9583,2042,2042
3451,9586,2041,2041
3452,9588,2040,2040
3453,9591,2040,2040
3454,9594,2039,2039
3455,9597,2039,2039
3456,9600,2039,2039
3457,9602,2039,2039
3458,9605,2039,2039
3459,9608,2039,2039
3460,9611,2039,2039
3461,9613,2040,2040
3462,9616,2040,2040
3463,9619,2040,2040
3464,9622,2041,2041
3465,9625,2041,2041
3466,9627,2042,2042
3467,9630,2042,2042
3468,9633,2043,2043
3469,9636,2043,2043
3470,9638,2044,2044
3471,9641,2044,2044
3472,9644,2044,2044
3473,9647,2044,2044
3474,9650,2044,2044
3475,9652,2045,2045
3476,9655,2045,2045
3477,9658,2044,2044
3478,9661,2044,2044
3479,9663,2044,2044
3480,9666,2044,2044
3481,9669,2044,2044
3482,9672,2044,2044
3483,9675,2043,2043
3484,9677,2043,2043
3485,9680,2043,2043
3486,9683,2043,2043
3487,9686,2043,2043
3488,9688,2043,2043
3489,9691,2043,2043
3490,9694,2044,2044
3491,9697,2044,2044
3492,9700,2045,2045
3493,9702,2045,2045
3494,9705,2046,2046
3495,9708,2047,2047
3496,9711,2048,2048
3497,9713,2048,2048
3498,9716,2048,2048
3499,9719,2042,2042
3500,9722,2034,2034
3501,9725,2026,2026
3502,9727,2037,2037
3503,9730,2085,2085
3504,9733,2169,2169
3505,9736,2281,2281
3506,9738,2408,2408
3507,9741,2534,2534
3508,9744,2627,2627
3509,9747,2663,2663
3510,9750,2629,2629
3511,9752,2535,2535
3512,9755,2410,2410
3513,9758,2282,2282
3514,9761,2168,2168
3515,9763,2072,2072
3516,9766,1995,1995
3517,9769,1940,1940
3518,9772,1912,1912
3519,9775,1925,1925
3520,9777,1958,1958
3521,9780,1996,1996
3522,9783,2026,2026
3523,9786,2042,2042
3524,9788,2048,2048
3525,9791,2051,2051
3526,9794,2049,2049
3527,9797,2047,2047
3528,9800,2044,2044
3529,9802,2042,2042
3530,9805,2040,2040
3531,9808,2038,2038
3532,9811,2037,2037
3533,9813,2035,2035
3534,9816,2033,2033
3535,9819,2032,2032
3536,9822,2031,2031
3537,9825,2030,2030
3538,9827,2029,2029
3539,9830,2028,2028
3540,9833,2028,2028
3541,9836,2028,2028
3542,9838,2028,2028
3543,9841,2029,2029
3544,9844,2030,2030
3545,9847,2030,2030
3546,9850,2032,2032
3547,9852,2033,2033
3548,9855,2034,2034
3549,9858,2036,2036
3550,9861,2038,2038
3551,9863,2040,2040
3552,9866,2041,2041
3553,9869,2043,2043
3554,9872,2045,2045
3555,9875,2047,2047
3556,9877,2049,2049
3557,9880,2051,2051
3558,9883,2053,2053
3559,9886,2054,2054
3560,9888,2056,2056
3561,9891,2057,2057
3562,9894,2058,2058
3563,9897,2060,2060
3564,9900,2061,2061
3565,9902,2062,2062
3566,9905,2064,2064
3567,9908,2065,2065
3568,9911,2066,2066
3569,9913,2068,2068
3570,9916,2070,2070
3571,9919,2072,2072
3572,9922,2075,2075
3573,9925,2079,2079
3574,9927,2083,2083
3575,9930,2088,2088
3576,9933,2093,2093
3577,9936,2099,2099
3578,9938,2106,2106
3579,9941,2113,2113
3580,9944,2121,2121
3581,9947,2128,2128
3582,9950,2135,2135
3583,9952,2142,2142
3584,9955,2148,2148
3585,9958,2152,2152
3586,9961,2156,2156
3587,9963,2158,2158
3588,9966,2159,2159
3589,9969,2157,2157
3590,9972,2155,2155
3591,9975,2151,2151
3592,9977,2145,2145
3593,9980,2138,2138
3594,9983,2131,2131
3595,9986,2123,2123
3596,9988,2115,2115
3597,9991,2107,2107
3598,9994,2099,2099
3599,9997,2091,2091
3600,10000,2084,2084
3601,10002,2078,2078
3602,10005,2072,2072
3603,10008,2067,2067
3604,10011,2063,2063
3605,10013,2059,2059
3606,10016,2056,2056
3607,10019,2053,2053
3608,10022,2051,2051
3609,10025,2049,2049
3610,10027,2047,2047
3611,10030,2045,2045
3612,10033,2044,2044
3613,10036,2042,2042
3614,10038,2041,2041
3615,10041,2040,2040
3616,10044,2039,2039
3617,10047,2048,2048
3618,10050,2050,2050
3619,10052,2052,2052
3620,10055,2054,2054
3621,10058,2056,2056
3622,10061,2058,2058
3623,10063,2060,2060
3624,10066,2062,2062
3625,10069,2063,2063
3626,10072,2064,2064
3627,10075,2065,2065
3628,10077,2066,2066
3629,10080,2066,2066
3630,10083,2067,2067
3631,10086,2067,2067
3632,10088,2067,2067
3633,10091,2066,2066
3634,10094,2066,2066
3635,10097,2065,2065
3636,10100,2064,2064
3637,10102,2063,2063
3638,10105,2061,2061
3639,10108,2060,2060
3640,10111,2058,2058
3641,10113,2057,2057
3642,10116,2055,2055
3643,10119,2053,2053
3644,10122,2052,2052
3645,10125,2050,2050
3646,10127,2049,2049
3647,10130,2047,2047
3648,10133,2046,2046
3649,10136,2044,2044
3650,10138,2043,2043
3651,10141,2042,2042
3652,10144,2041,2041
3653,10147,2040,2040
3654,10150,2040,2040
3655,10152,2039,2039
3656,10155,2039,2039
3657,10158,2039,2039
3658,10161,2039,2039
3659,10163,2039,2039
3660,10166,2039,2039
3661,10169,2039,2039
3662,10172,2040,2040
3663,10175,2040,2040
3664,10177,2040,2040
3665,10180,2041,2041
3666,10183,2041,2041
3667,10186,2042,2042
3668,10188,2042,2042
3669,10191,2043,2043
3670,10194,2043,2043
3671,10197,2044,2044
3672,10200,2044,2044
3673,10202,2044,2044
3674,10205,2044,2044
3675,10208,2044,2044
3676,10211,2045,2045
3677,10213,2045,2045
3678,10216,2044,2044
3679,10219,2044,2044
3680,10222,2044,2044
3681,10225,2044,2044
3682,10227,2044,2044
3683,10230,2044,2044
3684,10233,2043,2043
3685,10236,2043,2043
3686,10238,2043,2043
3687,10241,2043,2043
3688,10244,2043,2043
3689,10247,2043,2043
3690,10250,2043,2043
3691,10252,2044,2044
3692,10255,2044,2044
3693,10258,2045,2045
3694,10261,2045,2045
3695,10263,2046,2046
3696,10266,2047,2047
3697,10269,2048,2048
3698,10272,2048,2048
3699,10275,2048,2048
3700,10277,2042,2042
3701,10280,2034,2034
3702,10283,2026,2026
3703,10286,2037,2037
3704,10288,2085,2085
3705,10291,2169,2169
3706,10294,2281,2281
3707,10297,2408,2408
3708,10300,2534,2534
3709,10302,2627,2627
3710,10305,2663,2663
3711,10308,2629,2629
3712,10311,2535,2535
3713,10313,2410,2410
3714,10316,2282,2282
3715,10319,2168,2168
3716,10322,2072,2072
3717,10325,1995,1995
3718,10327,1940,1940
3719,10330,1912,1912
3720,10333,1925,1925
3721,10336,1958,1958
3722,10338,1996,1996
3723,10341,2026,2026
3724,10344,2042,2042
3725,10347,2048,2048
3726,10350,2051,2051
3727,10352,2049,2049
3728,10355,2047,2047
3729,10358,2044,2044
3730,10361,2042,2042
3731,10363,2040,2040
3732,10366,2038,2038
3733,10369,2037,2037
3734,10372,2035,2035
3735,10375,2033,2033
3736,10377,2032,2032
3737,10380,2031,2031
3738,10383,2030,2030
3739,10386,2029,2029
3740,10388,2028,2028
3741,10391,2028,2028
3742,10394,2028,2028
3743,10397,2028,2028
3744,10400,2029,2029
3745,10402,2030,2030
3746,10405,2030,2030
3747,10408,2032,2032
3748,10411,2033,2033
3749,10413,2034,2034
3750,10416,2036,2036
3751,10419,2038,2038
3752,10422,2040,2040
3753,10425,2041,2041
3754,10427,2043,2043
3755,10430,2045,2045
3756,10433,2047,2047
3757,10436,2049,2049
3758,10438,2051,2051
3759,10441,2053,2053
3760,10444,2054,2054
3761,10447,2056,2056
3762,10450,2057,2057
3763,10452,2058,2058
3764,10455,2060,2060
3765,10458,2061,2061
3766,10461,2062,2062
3767,10463,2064,2064
3768,10466,2065,2065
3769,10469,2066,2066
3770,10472,2068,2068
3771,10475,2070,2070
3772,10477,2072,2072
3773,10480,2075,2075
3774,10483,2079,2079
3775,10486,2083,2083
3776,10488,2088,2088
3777,10491,2093,2093
3778,10494,2099,2099
3779,10497,2106,2106
3780,10500,2113,2113
3781,10502,2121,2121
3782,10505,2128,2128
3783,10508,2135,2135
3784,10511,2142,2142
3785,10513,2148,2148
3786,10516,2152,2152
3787,10519,2156,2156
3788,10522,2158,2158
3789,10525,2159,2159
3790,10527,2157,2157
3791,10530,2155,2155
3792,10533,2151,2151
3793,10536,2145,2145
3794,10538,2138,2138
3795,10541,2131,2131
3796,10544,2123,2123
3797,10547,2115,2115
3798,10550,2107,2107
3799,10552,2099,2099
3800,10555,2091,2091
3801,10558,2084,2084
3802,10561,2078,2078
3803,10563,2072,2072
3804,10566,2067,2067
3805,10569,2063,2063
3806,10572,2059,2059
3807,10575,2056,2056
3808,10577,2053,2053
3809,10580,2051,2051
3810,10583,2049,2049
3811,10586,2047,2047
3812,10588,2045,2045
3813,10591,2044,2044
3814,10594,2042,2042
3815,10597,2041,2041
3816,10600,2040,2040
3817,10602,2039,2039
3818,10605,2038,2038
3819,10608,2037,2037
3820,10611,2037,2037
3821,10613,2036,2036
3822,10616,2035,2035
3823,10619,2035,2035
3824,10622,2035,2035
3825,10625,2035,2035
3826,10627,2035,2035
3827,10630,2035,2035
3828,10633,2036,2036
3829,10636,2036,2036
3830,10638,2037,2037
3831,10641,2038,2038
3832,10644,2039,2039
3833,10647,2040,2040
3834,10650,2042,2042
3835,10652,2043,2043
3836,10655,2045,2045
3837,10658,2047,2047
3838,10661,2049,2049
3839,10663,2051,2051
3840,10666,2053,2053
3841,10669,2055,2055
3842,10672,2056,2056
3843,10675,2058,2058
3844,10677,2060,2060
3845,10680,2062,2062
3846,10683,2063,2063
3847,10686,2064,2064
3848,10688,2066,2066
3849,10691,2066,2066
3850,10694,2067,2067
3851,10697,2068,2068
3852,10700,2068,2068
3853,10702,2068,2068
3854,10705,2068,2068
3855,10708,2048,2048
3856,10711,2050,2050
3857,10713,2052,2052
3858,10716,2054,2054
3859,10719,2056,2056
3860,10722,2058,2058
3861,10725,2060,2060
3862,10727,2062,2062
3863,10730,2063,2063
3864,10733,2064,2064
3865,10736,2065,2065
3866,10738,2066,2066
3867,10741,2066,2066
3868,10744,2067,2067
3869,10747,2067,2067
3870,10750,2067,2067
3871,10752,2066,2066
3872,10755,2066,2066
3873,10758,2065,2065
3874,10761,2064,2064
3875,10763,2063,2063
3876,10766,2061,2061
3877,10769,2060,2060
3878,10772,2058,2058
3879,10775,2057,2057
3880,10777,2055,2055
3881,10780,2053,2053
3882,10783,2052,2052
3883,10786,2050,2050
3884,10788,2049,2049
3885,10791,2047,2047
3886,10794,2046,2046
3887,10797,2044,2044
3888,10800,2043,2043
3889,10802,2042,2042
3890,10805,2041,2041
3891,10808,2040,2040
3892,10811,2040,2040
3893,10813,2039,2039
3894,10816,2039,2039
3895,10819,2039,2039
3896,10822,2039,2039
3897,10825,2039,2039
3898,10827,2039,2039
3899,10830,2039,2039
3900,10833,2040,2040
3901,10836,2040,2040
3902,10838,2040,2040
3903,10841,2041,2041
3904,10844,2041,2041
3905,10847,2042,2042
3906,10850,2042,2042
3907,10852,2043,2043
3908,10855,2043,2043
3909,10858,2044,2044
3910,10861,2044,2044
3911,10863,2044,2044
3912,10866,2044,2044
3913,10869,2044,2044
3914,10872,2045,2045
3915,10875,2045,2045
3916,10877,2044,2044
3917,10880,2044,2044
3918,10883,2044,2044
3919,10886,2044,2044
3920,10888,2044,2044
3921,10891,2044,2044
3922,10894,2043,2043
3923,10897,2043,2043
3924,10900,2043,2043
3925,10902,2043,2043
3926,10905,2043,2043
3927,10908,2043,2043
3928,10911,2043,2043
3929,10913,2044,2044
3930,10916,2044,2044
3931,10919,2045,2045
3932,10922,2045,2045
3933,10925,2046,2046
3934,10927,2047,2047
3935,10930,2048,2048
3936,10933,2048,2048
3937,10936,2048,2048
3938,10938,2042,2042
3939,10941,2034,2034
3940,10944,2026,2026
3941,10947,2037,2037
3942,10950,2085,2085
3943,10952,2169,2169
3944,10955,2281,2281
3945,10958,2408,2408
3946,10961,2534,2534
3947,10963,2627,2627
3948,10966,2663,2663
3949,10969,2629,2629
3950,10972,2535,2535
3951,10975,2410,2410
3952,10977,2282,2282
3953,10980,2168,2168
3954,10983,2072,2072
3955,10986,1995,1995
3956,10988,1940,1940
3957,10991,1912,1912
3958,10994,1925,1925
3959,10997,1958,1958
3960,11000,1996,1996
3961,11002,2026,2026
3962,11005,2042,2042
3963,11008,2048,2048
3964,11011,2051,2051
3965,11013,2049,2049
3966,11016,2047,2047
3967,11019,2044,2044
3968,11022,2042,2042
3969,11025,2040,2040
3970,11027,2038,2038
3971,11030,2037,2037
3972,11033,2035,2035
3973,11036,2033,2033
3974,11038,2032,2032
3975,11041,2031,2031
3976,11044,2030,2030
3977,11047,2029,2029
3978,11050,2028,2028
3979,11052,2028,2028
3980,11055,2028,2028
3981,11058,2028,2028
3982,11061,2029,2029
3983,11063,2030,2030
3984,11066,2030,2030
3985,11069,2032,2032
3986,11072,2033,2033
3987,11075,2034,2034
3988,11077,2036,2036
3989,11080,2038,2038
3990,11083,2040,2040
3991,11086,2041,2041
3992,11088,2043,2043
3993,11091,2045,2045
3994,11094,2047,2047
3995,11097,2049,2049
3996,11100,2051,2051
3997,11102,2053,2053
3998,11105,2054,2054
3999,11108,2056,2056
4000,11111,2057,2057
4001,11113,2059,2059
4002,11116,2060,2060
4003,11119,2062,2062
4004,11122,2063,2063
4005,11125,2065,2065
4006,11127,2066,2066
4007,11130,2068,2068
4008,11133,2070,2070
4009,11136,2073,2073
4010,11138,2076,2076
4011,11141,2079,2079
4012,11144,2084,2084
4013,11147,2088,2088
4014,11150,2094,2094
4015,11152,2100,2100
4016,11155,2107,2107
4017,11158,2114,2114
4018,11161,2121,2121
4019,11163,2129,2129
4020,11166,2136,2136
4021,11169,2142,2142
4022,11172,2148,2148
4023,11175,2153,2153
4024,11177,2156,2156
4025,11180,2158,2158
4026,11183,2159,2159
4027,11186,2158,2158
4028,11188,2155,2155
4029,11191,2048,2048
4030,11194,2050,2050
4031,11197,2052,2052
4032,11200,2054,2054
4033,11202,2056,2056
4034,11205,2058,2058
4035,11208,2060,2060
4036,11211,2062,2062
4037,11213,2063,2063
4038,11216,2064,2064
4039,11219,2065,2065
4040,11222,2066,2066
4041,11225,2066,2066
4042,11227,2067,2067
4043,11230,2067,2067
4044,11233,2067,2067
4045,11236,2066,2066
4046,11238,2066,2066
4047,11241,2065,2065
4048,11244,2064,2064
4049,11247,2063,2063
4050,11250,2061,2061
4051,11252,2060,2060
4052,11255,2058,2058
4053,11258,2057,2057
4054,11261,2055,2055
4055,11263,2053,2053
4056,11266,2052,2052
4057,11269,2050,2050
4058,11272,2049,2049
4059,11275,2047,2047
4060,11277,2046,2046
4061,11280,2044,2044
4062,11283,2043,2043
4063,11286,2042,2042
4064,11288,2041,2041
4065,11291,2040,2040
4066,11294,2040,2040
4067,11297,2039,2039
4068,11300,2039,2039
4069,11302,2039,2039
4070,11305,2039,2039
4071,11308,2039,2039
4072,11311,2039,2039
4073,11313,2039,2039
4074,11316,2040,2040
4075,11319,2040,2040
4076,11322,2040,2040
4077,11325,2041,2041
4078,11327,2041,2041
4079,11330,2042,2042
4080,11333,2042,2042
4081,11336,2043,2043
4082,11338,2043,2043
4083,11341,2044,2044
4084,11344,2044,2044
4085,11347,2044,2044
4086,11350,2044,2044
4087,11352,2044,2044
4088,11355,2045,2045
4089,11358,2045,2045
4090,11361,2044,2044
4091,11363,2044,2044
4092,11366,2044,2044
4093,11369,2044,2044
4094,11372,2044,2044
4095,11375,2044,2044
4096,11377,2043,2043
4097,11380,2043,2043
4098,11383,2043,2043
4099,11386,2043,2043
4100,11388,2043,2043
4101,11391,2043,2043
4102,11394,2043,2043
4103,11397,2044,2044
4104,11400,2044,2044
4105,11402,2045,2045
4106,11405,2045,2045
4107,11408,2046,2046
4108,11411,2047,2047
4109,11413,2048,2048
4110,11416,2048,2048
4111,11419,2048,2048
4112,11422,2042,2042
4113,11425,2034,2034
4114,11427,2026,2026
4115,11430,2037,2037
4116,11433,2085,2085
4117,11436,2169,2169
4118,11438,2281,2281
4119,11441,2408,2408
4120,11444,2534,2534
4121,11447,2627,2627
4122,11450,2663,2663
4123,11452,2629,2629
4124,11455,2535,2535
4125,11458,2410,2410
4126,11461,2282,2282
4127,11463,2168,2168
4128,11466,2072,2072
4129,11469,1995,1995
4130,11472,1940,1940
4131,11475,1912,1912
4132,11477,1925,1925
4133,11480,1958,1958
4134,11483,1996,1996
4135,11486,2026,2026
4136,11488,2042,2042
4137,11491,2048,2048
4138,11494,2051,2051
4139,11497,2049,2049
4140,11500,2047,2047
4141,11502,2044,2044
4142,11505,2042,2042
4143,11508,2040,2040
4144,11511,2038,2038
4145,11513,2037,2037
4146,11516,2035,2035
4147,11519,2033,2033
4148,11522,2032,2032
4149,11525,2031,2031
4150,11527,2030,2030
4151,11530,2029,2029
4152,11533,2028,2028
4153,11536,2028,2028
4154,11538,2028,2028
4155,11541,2028,2028
4156,11544,2029,2029
4157,11547,2030,2030
4158,11550,2030,2030
4159,11552,2032,2032
4160,11555,2033,2033
4161,11558,2034,2034
4162,11561,2036,2036
4163,11563,2038,2038
4164,11566,2040,2040
4165,11569,2041,2041
4166,11572,2043,2043
4167,11575,2045,2045
4168,11577,2047,2047
4169,11580,2049,2049
4170,11583,2051,2051
4171,11586,2053,2053
4172,11588,2054,2054
4173,11591,2056,2056
4174,11594,2057,2057
4175,11597,2058,2058
4176,11600,2060,2060
4177,11602,2061,2061
4178,11605,2062,2062
4179,11608,2064,2064
4180,11611,2065,2065
4181,11613,2066,2066
4182,11616,2068,2068
4183,11619,2070,2070
4184,11622,2072,2072
4185,11625,2075,2075
4186,11627,2079,2079
4187,11630,2083,2083
4188,11633,2088,2088
4189,11636,2093,2093
4190,11638,2099,2099
4191,11641,2106,2106
4192,11644,2113,2113
4193,11647,2121,2121
4194,11650,2128,2128
4195,11652,2135,2135
4196,11655,2142,2142
4197,11658,2148,2148
4198,11661,2152,2152
4199,11663,2156,2156
4200,11666,2158,2158
4201,11669,2159,2159
4202,11672,2157,2157
4203,11675,2155,2155
4204,11677,2151,2151
4205,11680,2145,2145
4206,11683,2138,2138
4207,11686,2131,2131
4208,11688,2123,2123
4209,11691,2115,2115
4210,11694,2107,2107
4211,11697,2099,2099
4212,11700,2091,2091
4213,11702,2084,2084
4214,11705,2078,2078
4215,11708,2072,2072
4216,11711,2067,2067
4217,11713,2063,2063
4218,11716,2059,2059
4219,11719,2056,2056
4220,11722,2053,2053
4221,11725,2051,2051
4222,11727,2049,2049
4223,11730,2047,2047
4224,11733,2045,2045
4225,11736,2044,2044
4226,11738,2042,2042
4227,11741,2041,2041
4228,11744,2040,2040
4229,11747,2039,2039
4230,11750,2038,2038
4231,11752,2037,2037
4232,11755,2037,2037
4233,11758,2036,2036
4234,11761,2035,2035
4235,11763,2035,2035
4236,11766,2035,2035
4237,11769,2035,2035
4238,11772,2035,2035
4239,11775,2035,2035
4240,11777,2036,2036
4241,11780,2036,2036
4242,11783,2037,2037
4243,11786,2038,2038
4244,11788,2039,2039
4245,11791,2040,2040
4246,11794,2042,2042
4247,11797,2043,2043
4248,11800,2045,2045
4249,11802,2047,2047
4250,11805,2049,2049
4251,11808,2051,2051
4252,11811,2053,2053
4253,11813,2055,2055
4254,11816,2056,2056
4255,11819,2058,2058
4256,11822,2060,2060
4257,11825,2062,2062
4258,11827,2063,2063
4259,11830,2048,2048
4260,11833,2050,2050
4261,11836,2052,2052
4262,11838,2054,2054
4263,11841,2056,2056
4264,11844,2058,2058
4265,11847,2060,2060
4266,11850,2062,2062
4267,11852,2063,2063
4268,11855,2064,2064
4269,11858,2065,2065
4270,11861,2066,2066
4271,11863,2066,2066
4272,11866,2067,2067
4273,11869,2067,2067
4274,11872,2067,2067
4275,11875,2066,2066
4276,11877,2066,2066
4277,11880,2065,2065
4278,11883,2064,2064
4279,11886,2063,2063
4280,11888,2061,2061
4281,11891,2060,2060
4282,11894,2058,2058
4283,11897,2057,2057
4284,11900,2055,2055
4285,11902,2053,2053
4286,11905,2052,2052
4287,11908,2050,2050
4288,11911,2049,2049
4289,11913,2047,2047
4290,11916,2046,2046
4291,11919,2044,2044
4292,11922,2043,2043
4293,11925,2042,2042
4294,11927,2041,2041
4295,11930,2040,2040
4296,11933,2040,2040
4297,11936,2039,2039
4298,11938,2039,2039
4299,11941,2039,2039
4300,11944,2039,2039
4301,11947,2039,2039
4302,11950,2039,2039
4303,11952,2039,2039
4304,11955,2040,2040
4305,11958,2040,2040
4306,11961,2040,2040
4307,11963,2041,2041
4308,11966,2041,2041
4309,11969,2042,2042
4310,11972,2042,2042
4311,11975,2043,2043
4312,11977,2043,2043
4313,11980,2044,2044
4314,11983,2044,2044
4315,11986,2044,2044
4316,11988,2044,2044
4317,11991,2044,2044
4318,11994,2045,2045
4319,11997,2045,2045
4320,12000,2044,2044
4321,12002,2044,2044
4322,12005,2044,2044
4323,12008,2044,2044
4324,12011,2044,2044
4325,12013,2044,2044
4326,12016,2043,2043
4327,12019,2043,2043
4328,12022,2043,2043
4329,12025,2043,2043
4330,12027,2043,2043
4331,12030,2043,2043
4332,12033,2043,2043
4333,12036,2044,2044
4334,12038,2044,2044
4335,12041,2045,2045
4336,12044,2045,2045
4337,12047,2046,2046
4338,12050,2047,2047
4339,12052,2048,2048
4340,12055,2048,2048
4341,12058,2048,2048
4342,12061,2042,2042
4343,12063,2034,2034
4344,12066,2026,2026
4345,12069,2037,2037
4346,12072,2085,2085
4347,12075,2169,2169
4348,12077,2281,2281
4349,12080,2408,2408
4350,12083,2534,2534
4351,12086,2627,2627
4352,12088,2663,2663
4353,12091,2629,2629
4354,12094,2535,2535
4355,12097,2410,2410
4356,12100,2282,2282
4357,12102,2168,2168
4358,12105,2072,2072
4359,12108,1995,1995
4360,12111,1940,1940
4361,12113,1912,1912
4362,12116,1925,1925
4363,12119,1958,1958
4364,12122,1996,1996
4365,12125,2026,2026
4366,12127,2042,2042
4367,12130,2048,2048
4368,12133,2051,2051
4369,12136,2049,2049
4370,12138,2047,2047
4371,12141,2044,2044
4372,12144,2042,2042
4373,12147,2040,2040
4374,12150,2038,2038
4375,12152,2037,2037
4376,12155,2035,2035
4377,12158,2033,2033
4378,12161,2032,2032
4379,12163,2031,2031
4380,12166,2030,2030
4381,12169,2029,2029
4382,12172,2028,2028
4383,12175,2028,2028
4384,12177,2028,2028
4385,12180,2028,2028
4386,12183,2029,2029
4387,12186,2030,2030
4388,12188,2030,2030
4389,12191,2032,2032
4390,12194,2033,2033
4391,12197,2034,2034
4392,12200,2036,2036
4393,12202,2038,2038
4394,12205,2040,2040
4395,12208,2041,2041
4396,12211,2043,2043
4397,12213,2045,2045
4398,12216,2047,2047
4399,12219,2049,2049
4400,12222,2051,2051
4401,12225,2053,2053
4402,12227,2054,2054
4403,12230,2056,2056
4404,12233,2057,2057
4405,12236,2058,2058
4406,12238,2060,2060
4407,12241,2061,2061
4408,12244,2062,2062
4409,12247,2064,2064
4410,12250,2065,2065
4411,12252,2066,2066
4412,12255,2068,2068
4413,12258,2070,2070
4414,12261,2072,2072
4415,12263,2075,2075
4416,12266,2079,2079
4417,12269,2083,2083
4418,12272,2088,2088
4419,12275,2093,2093
4420,12277,2099,2099
4421,12280,2106,2106
4422,12283,2113,2113
4423,12286,2121,2121
4424,12288,2128,2128
4425,12291,2135,2135
4426,12294,2142,2142
4427,12297,2148,2148
4428,12300,2152,2152
4429,12302,2156,2156
4430,12305,2158,2158
4431,12308,2159,2159
4432,12311,2157,2157
4433,12313,2155,2155
4434,12316,2151,2151
4435,12319,2145,2145
4436,12322,2138,2138
4437,12325,2131,2131
4438,12327,2123,2123
4439,12330,2115,2115
4440,12333,2107,2107
4441,12336,2099,2099
4442,12338,2091,2091
4443,12341,2084,2084
4444,12344,2078,2078
4445,12347,2072,2072
4446,12350,2067,2067
4447,12352,2063,2063
4448,12355,2059,2059
4449,12358,2056,2056
4450,12361,2053,2053
4451,12363,2048,2048
4452,12366,2050,2050
4453,12369,2052,2052
4454,12372,2054,2054
4455,12375,2056,2056
4456,12377,2058,2058
4457,12380,2060,2060
4458,12383,2062,2062
4459,12386,2063,2063
4460,12388,2064,2064
4461,12391,2065,2065
4462,12394,2066,2066
4463,12397,2066,2066
4464,12400,2067,2067
4465,12402,2067,2067
4466,12405,2067,2067
4467,12408,2066,2066
4468,12411,2066,2066
4469,12413,2065,2065
4470,12416,2064,2064
4471,12419,2063,2063
4472,12422,2061,2061
4473,12425,2060,2060
4474,12427,2058,2058
4475,12430,2057,2057
4476,12433,2055,2055
4477,12436,2053,2053
4478,12438,2052,2052
4479,12441,2050,2050
4480,12444,2049,2049
4481,12447,2047,2047
4482,12450,2046,2046
4483,12452,2044,2044
4484,12455,2043,2043
4485,12458,2042,2042
4486,12461,2041,2041
4487,12463,2040,2040
4488,12466,2040,2040
4489,12469,2039,2039
4490,12472,2039,2039
4491,12475,2039,2039
4492,12477,2039,2039
4493,12480,2039,2039
4494,12483,2039,2039
4495,12486,2039,2039
4496,12488,2040,2040
4497,12491,2040,2040
4498,12494,2040,2040
4499,12497,2041,2041
4500,12500,2041,2041
4501,12502,2042,2042
4502,12505,2042,2042
4503,12508,2043,2043
4504,12511,2043,2043
4505,12513,2044,2044
4506,12516,2044,2044
4507,12519,2044,2044
4508,12522,2044,2044
4509,12525,2044,2044
4510,12527,2045,2045
4511,12530,2045,2045
4512,12533,2044,2044
4513,12536,2044,2044
4514,12538,2044,2044
4515,12541,2044,2044
4516,12544,2044,2044
4517,12547,2044,2044
4518,12550,2043,2043
4519,12552,2043,2043
4520,12555,2043,2043
4521,12558,2043,2043
4522,12561,2043,2043
4523,12563,2043,2043
4524,12566,2043,2043
4525,12569,2044,2044
4526,12572,2044,2044
4527,12575,2045,2045
4528,12577,2045,2045
4529,12580,2046,2046
4530,12583,2047,2047
4531,12586,2048,2048
4532,12588,2048,2048
4533,12591,2048,2048
4534,12594,2042,2042
4535,12597,2034,2034
4536,12600,2026,2026
4537,12602,2037,2037
4538,12605,2085,2085
4539,12608,2169,2169
4540,12611,2281,2281
4541,12613,2408,2408
4542,12616,2534,2534
4543,12619,2627,2627
4544,12622,2663,2663
4545,12625,2629,2629
4546,12627,2535,2535
4547,12630,2410,2410
4548,12633,2282,2282
4549,12636,2168,2168
4550,12638,2072,2072
4551,12641,1995,1995
4552,12644,1940,1940
4553,12647,1912,1912
4554,12650,1925,1925
4555,12652,1958,1958
4556,12655,1996,1996
4557,12658,2026,2026
4558,12661,2042,2042
4559,12663,2048,2048
4560,12666,2051,2051
4561,12669,2049,2049
4562,12672,2047,2047
4563,12675,2044,2044
4564,12677,2042,2042
4565,12680,2040,2040
4566,12683,2038,2038
4567,12686,2037,2037
4568,12688,2035,2035
4569,12691,2033,2033
4570,12694,2032,2032
4571,12697,2031,2031
4572,12700,2030,2030
4573,12702,2029,2029
4574,12705,2028,2028
4575,12708,2028,2028
4576,12711,2028,2028
4577,12713,2028,2028
4578,12716,2029,2029
4579,12719,2030,2030
4580,12722,2030,2030
4581,12725,2032,2032
4582,12727,2033,2033
4583,12730,2034,2034
4584,12733,2036,2036
4585,12736,2038,2038
4586,12738,2040,2040
4587,12741,2041,2041
4588,12744,2043,2043
4589,12747,2045,2045
4590,12750,2047,2047
4591,12752,2049,2049
4592,12755,2051,2051
4593,12758,2053,2053
4594,12761,2054,2054
4595,12763,2056,2056
4596,12766,2057,2057
4597,12769,2058,2058
4598,12772,2060,2060
4599,12775,2061,2061
4600,12777,2062,2062
4601,12780,2064,2064
4602,12783,2065,2065
4603,12786,2066,2066
4604,12788,2068,2068
4605,12791,2070,2070
4606,12794,2072,2072
4607,12797,2075,2075
4608,12800,2079,2079
4609,12802,2083,2083
4610,12805,2088,2088
4611,12808,2093,2093
4612,12811,2099,2099
4613,12813,2106,2106
4614,12816,2113,2113
4615,12819,2121,2121
4616,12822,2128,2128
4617,12825,2135,2135
4618,12827,2142,2142
4619,12830,2148,2148
4620,12833,2152,2152
4621,12836,2156,2156
4622,12838,2158,2158
4623,12841,2159,2159
4624,12844,2157,2157
4625,12847,2155,2155
4626,12850,2151,2151
4627,12852,2145,2145
4628,12855,2138,2138
4629,12858,2131,2131
4630,12861,2048,2048
4631,12863,2050,2050
4632,12866,2052,2052
4633,12869,2054,2054
4634,12872,2056,2056
4635,12875,2058,2058
4636,12877,2060,2060
4637,12880,2062,2062
4638,12883,2063,2063
4639,12886,2064,2064
4640,12888,2065,2065
4641,12891,2066,2066
4642,12894,2066,2066
4643,12897,2067,2067
4644,12900,2067,2067
4645,12902,2067,2067
4646,12905,2066,2066
4647,12908,2066,2066
4648,12911,2065,2065
4649,12913,2064,2064
4650,12916,2063,2063
4651,12919,2061,2061
4652,12922,2060,2060
4653,12925,2058,2058
4654,12927,2057,2057
4655,12930,2055,2055
4656,12933,2053,2053
4657,12936,2052,2052
4658,12938,2050,2050
4659,12941,2049,2049
4660,12944,2047,2047
4661,12947,2046,2046
4662,12950,2044,2044
4663,12952,2043,2043
4664,12955,2042,2042
4665,12958,2041,2041
4666,12961,2040,2040
4667,12963,2040,2040
4668,12966,2039,2039
4669,12969,2039,2039
4670,12972,2039,2039
4671,12975,2039,2039
4672,12977,2039,2039
4673,12980,2039,2039
4674,12983,2039,2039
4675,12986,2040,2040
4676,12988,2040,2040
4677,12991,2040,2040
4678,12994,2041,2041
4679,12997,2041,2041
4680,13000,2042,2042
4681,13002,2042,2042
4682,13005,2043,2043
4683,13008,2043,2043
4684,13011,2044,2044
4685,13013,2044,2044
4686,13016,2044,2044
4687,13019,2044,2044
4688,13022,2044,2044
4689,13025,2045,2045
4690,13027,2045,2045
4691,13030,2044,2044
4692,13033,2042,2042
4693,13036,2035,2035
4694,13038,2026,2026
4695,13041,2016,2016
4696,13044,2026,2026
4697,13047,2072,2072
4698,13050,2155,2155
4699,13052,2265,2265
4700,13055,2391,2391
4701,13058,2516,2516
4702,13061,2608,2608
4703,13063,2643,2643
4704,13066,2609,2609
4705,13069,2515,2515
4706,13072,2391,2391
4707,13075,2263,2263
4708,13077,2150,2150
4709,13080,2055,2055
4710,13083,1979,1979
4711,13086,1926,1926
4712,13088,1900,1900
4713,13091,1915,1915
4714,13094,1951,1951
4715,13097,1992,1992
4716,13100,2024,2024
4717,13102,2044,2044
4718,13105,2053,2053
4719,13108,2059,2059
4720,13111,2060,2060
4721,13113,2061,2061
4722,13116,2062,2062
4723,13119,2063,2063
4724,13122,2064,2064
4725,13125,2064,2064
4726,13127,2064,2064
4727,13130,2064,2064
4728,13133,2064,2064
4729,13136,2064,2064
4730,13138,2064,2064
4731,13141,2063,2063
4732,13144,2062,2062
4733,13147,2061,2061
4734,13150,2060,2060
4735,13152,2058,2058
4736,13155,2056,2056
4737,13158,2055,2055
4738,13161,2053,2053
4739,13163,2051,2051
4740,13166,2049,2049
4741,13169,2047,2047
4742,13172,2044,2044
4743,13175,2043,2043
4744,13177,2042,2042
4745,13180,2040,2040
4746,13183,2039,2039
4747,13186,2038,2038
4748,13188,2038,2038
4749,13191,2039,2039
4750,13194,2040,2040
4751,13197,2041,2041
4752,13200,2044,2044
4753,13202,2048,2048
4754,13205,2052,2052
4755,13208,2058,2058
4756,13211,2064,2064
4757,13213,2072,2072
4758,13216,2080,2080
4759,13219,2089,2089
4760,13222,2099,2099
4761,13225,2108,2108
4762,13227,2118,2118
4763,13230,2127,2127
4764,13233,2135,2135
4765,13236,2142,2142
4766,13238,2148,2148
4767,13241,2152,2152
4768,13244,2155,2155
4769,13247,2156,2156
4770,13250,2156,2156
4771,13252,2153,2153
4772,13255,2150,2150
4773,13258,2145,2145
4774,13261,2139,2139
4775,13263,2048,2048
4776,13266,2050,2050
4777,13269,2052,2052
4778,13272,2054,2054
4779,13275,2056,2056
4780,13277,2058,2058
4781,13280,2060,2060
4782,13283,2062,2062
4783,13286,2063,2063
4784,13288,2064,2064
4785,13291,2065,2065
4786,13294,2066,2066
4787,13297,2066,2066
4788,13300,2067,2067
4789,13302,2067,2067
4790,13305,2067,2067
4791,13308,2066,2066
4792,13311,2066,2066
4793,13313,2065,2065
4794,13316,2064,2064
4795,13319,2063,2063
4796,13322,2061,2061
4797,13325,2060,2060
4798,13327,2058,2058
4799,13330,2057,2057
4800,13333,2055,2055
4801,13336,2053,2053
4802,13338,2052,2052
4803,13341,2050,2050
4804,13344,2049,2049
4805,13347,2047,2047
4806,13350,2046,2046
4807,13352,2044,2044
4808,13355,2043,2043
4809,13358,2042,2042
4810,13361,2041,2041
4811,13363,2040,2040
4812,13366,2040,2040
4813,13369,2039,2039
4814,13372,2039,2039
4815,13375,2039,2039
4816,13377,2039,2039
4817,13380,2039,2039
4818,13383,2039,2039
4819,13386,2039,2039
4820,13388,2040,2040
4821,13391,2040,2040
4822,13394,2040,2040
4823,13397,2041,2041
4824,13400,2041,2041
4825,13402,2042,2042
4826,13405,2042,2042
4827,13408,2043,2043
4828,13411,2043,2043
4829,13413,2044,2044
4830,13416,2044,2044
4831,13419,2044,2044
4832,13422,2044,2044
4833,13425,2044,2044
4834,13427,2045,2045
4835,13430,2045,2045
4836,13433,2044,2044
4837,13436,2044,2044
4838,13438,2044,2044
4839,13441,2044,2044
4840,13444,2044,2044
4841,13447,2044,2044
4842,13450,2043,2043
4843,13452,2043,2043
4844,13455,2043,2043
4845,13458,2043,2043
4846,13461,2043,2043
4847,13463,2043,2043
4848,13466,2043,2043
4849,13469,2044,2044
4850,13472,2044,2044
4851,13475,2045,2045
4852,13477,2045,2045
4853,13480,2046,2046
4854,13483,2047,2047
4855,13486,2048,2048
4856,13488,2048,2048
4857,13491,2048,2048
4858,13494,2042,2042
4859,13497,2034,2034
4860,13500,2026,2026
4861,13502,2037,2037
4862,13505,2085,2085
4863,13508,2169,2169
4864,13511,2281,2281
4865,13513,2408,2408
4866,13516,2534,2534
4867,13519,2627,2627
4868,13522,2663,2663
4869,13525,2629,2629
4870,13527,2535,2535
4871,13530,2410,2410
4872,13533,2282,2282
4873,13536,2168,2168
4874,13538,2072,2072
4875,13541,1995,1995
4876,13544,1940,1940
4877,13547,1912,1912
4878,13550,1925,1925
4879,13552,1958,1958
4880,13555,1996,1996
4881,13558,2026,2026
4882,13561,2042,2042
4883,13563,2048,2048
4884,13566,2051,2051
4885,13569,2049,2049
4886,13572,2047,2047
4887,13575,2044,2044
4888,13577,2042,2042
4889,13580,2040,2040
4890,13583,2038,2038
4891,13586,2037,2037
4892,13588,2035,2035
4893,13591,2033,2033
4894,13594,2032,2032
4895,13597,2031,2031
4896,13600,2030,2030
4897,13602,2029,2029
4898,13605,2028,2028
4899,13608,2028,2028
4900,13611,2028,2028
4901,13613,2028,2028
4902,13616,2029,2029
4903,13619,2030,2030
4904,13622,2030,2030
4905,13625,2032,2032
4906,13627,2033,2033
4907,13630,2034,2034
4908,13633,2036,2036
4909,13636,2038,2038
4910,13638,2040,2040
4911,13641,2041,2041
4912,13644,2043,2043
4913,13647,2045,2045
4914,13650,2047,2047
4915,13652,2049,2049
4916,13655,2051,2051
4917,13658,2053,2053
4918,13661,2054,2054
4919,13663,2056,2056
4920,13666,2057,2057
4921,13669,2058,2058
4922,13672,2060,2060
4923,13675,2061,2061
4924,13677,2062,2062
4925,13680,2064,2064
4926,13683,2065,2065
4927,13686,2066,2066
4928,13688,2068,2068
4929,13691,2070,2070
4930,13694,2072,2072
4931,13697,2075,2075
4932,13700,2079,2079
4933,13702,2083,2083
4934,13705,2088,2088
4935,13708,2093,2093
4936,13711,2099,2099
4937,13713,2106,2106
4938,13716,2113,2113
4939,13719,2121,2121
4940,13722,2128,2128
4941,13725,2135,2135
4942,13727,2142,2142
4943,13730,2148,2148
4944,13733,2152,2152
4945,13736,2156,2156
4946,13738,2158,2158
4947,13741,2159,2159
4948,13744,2157,2157
4949,13747,2155,2155
4950,13750,2151,2151
4951,13752,2145,2145
4952,13755,2138,2138
4953,13758,2131,2131
4954,13761,2123,2123
4955,13763,2115,2115
4956,13766,2107,2107
4957,13769,2099,2099
4958,13772,2091,2091
4959,13775,2084,2084
4960,13777,2078,2078
4961,13780,2072,2072
4962,13783,2067,2067
4963,13786,2063,2063
4964,13788,2059,2059
4965,13791,2056,2056
4966,13794,2053,2053
4967,13797,2051,2051
4968,13800,2049,2049
4969,13802,2047,2047
4970,13805,2045,2045
4971,13808,2044,2044
4972,13811,2042,2042
4973,13813,2041,2041
4974,13816,2040,2040
4975,13819,2039,2039
4976,13822,2038,2038
4977,13825,2037,2037
4978,13827,2037,2037
4979,13830,2036,2036
4980,13833,2035,2035
4981,13836,2035,2035
4982,13838,2035,2035
4983,13841,2035,2035
4984,13844,2035,2035
4985,13847,2035,2035
4986,13850,2036,2036
4987,13852,2036,2036
4988,13855,2037,2037
4989,13858,2038,2038
4990,13861,2039,2039
4991,13863,2040,2040
4992,13866,2042,2042
4993,13869,2043,2043
4994,13872,2045,2045
4995,13875,2047,2047
4996,13877,2049,2049
4997,13880,2048,2048
4998,13883,2050,2050
4999,13886,2052,2052
5000,13888,2054,2054
5001,13891,2056,2056
5002,13894,2058,2058
5003,13897,2060,2060
5004,13900,2062,2062
5005,13902,2063,2063
5006,13905,2064,2064
5007,13908,2065,2065
5008,13911,2066,2066
5009,13913,2066,2066
5010,13916,2067,2067
5011,13919,2067,2067
5012,13922,2067,2067
5013,13925,2066,2066
5014,13927,2066,2066
5015,13930,2065,2065
5016,13933,2064,2064
5017,13936,2063,2063
5018,13938,2061,2061
5019,13941,2060,2060
5020,13944,2058,2058
5021,13947,2057,2057
5022,13950,2055,2055
5023,13952,2053,2053
5024,13955,2052,2052
5025,13958,2050,2050
5026,13961,2049,2049
5027,13963,2047,2047
5028,13966,2046,2046
5029,13969,2044,2044
5030,13972,2043,2043
5031,13975,2042,2042
5032,13977,2041,2041
5033,13980,2040,2040
5034,13983,2040,2040
5035,13986,2039,2039
5036,13988,2039,2039
5037,13991,2039,2039
5038,13994,2039,2039
5039,13997,2039,2039
5040,14000,2039,2039
5041,14002,2039,2039
5042,14005,2040,2040
5043,14008,2040,2040
5044,14011,2040,2040
5045,14013,2041,2041
5046,14016,2041,2041
5047,14019,2042,2042
5048,14022,2042,2042
5049,14025,2043,2043
5050,14027,2043,2043
5051,14030,2044,2044
5052,14033,2044,2044
5053,14036,2044,2044
5054,14038,2044,2044
5055,14041,2044,2044
5056,14044,2045,2045
5057,14047,2045,2045
5058,14050,2044,2044
5059,14052,2044,2044
5060,14055,2044,2044
5061,14058,2044,2044
5062,14061,2044,2044
5063,14063,2044,2044
5064,14066,2043,2043
5065,14069,2043,2043
5066,14072,2043,2043
5067,14075,2043,2043
5068,14077,2043,2043
5069,14080,2043,2043
5070,14083,2043,2043
5071,14086,2044,2044
5072,14088,2044,2044
5073,14091,2045,2045
5074,14094,2045,2045
5075,14097,2046,2046
5076,14100,2047,2047
5077,14102,2048,2048
5078,14105,2048,2048
5079,14108,2048,2048
5080,14111,2042,2042
5081,14113,2034,2034
5082,14116,2026,2026
5083,14119,2037,2037
5084,14122,2085,2085
5085,14125,2169,2169
5086,14127,2281,2281
5087,14130,2408,2408
5088,14133,2534,2534
5089,14136,2627,2627
5090,14138,2663,2663
5091,14141,2629,2629
5092,14144,2535,2535
5093,14147,2410,2410
5094,14150,2282,2282
5095,14152,2168,2168
5096,14155,2072,2072
5097,14158,1995,1995
5098,14161,1940,1940
5099,14163,1912,1912
5100,14166,1925,1925
5101,14169,1958,1958
5102,14172,1996,1996
5103,14175,2026,2026
5104,14177,2042,2042
5105,14180,2048,2048
5106,14183,2051,2051
5107,14186,2049,2049
5108,14188,2047,2047
5109,14191,2044,2044
5110,14194,2042,2042
5111,14197,2040,2040
5112,14200,2038,2038
5113,14202,2037,2037
5114,14205,2035,2035
5115,14208,2033,2033
5116,14211,2032,2032
5117,14213,2031,2031
5118,14216,2030,2030
5119,14219,2029,2029
5120,14222,2028,2028
5121,14225,2028,2028
5122,14227,2028,2028
5123,14230,2028,2028
5124,14233,2029,2029
5125,14236,2030,2030
5126,14238,2030,2030
5127,14241,2032,2032
5128,14244,2033,2033
5129,14247,2034,2034
5130,14250,2036,2036
5131,14252,2038,2038
5132,14255,2040,2040
5133,14258,2041,2041
5134,14261,2043,2043
5135,14263,2045,2045
5136,14266,2047,2047
5137,14269,2049,2049
5138,14272,2051,2051
5139,14275,2053,2053
5140,14277,2054,2054
5141,14280,2056,2056
5142,14283,2057,2057
5143,14286,2058,2058
5144,14288,2060,2060
5145,14291,2061,2061
5146,14294,2062,2062
5147,14297,2064,2064
5148,14300,2065,2065
5149,14302,2066,2066
5150,14305,2068,2068
5151,14308,2070,2070
5152,14311,2072,2072
5153,14313,2075,2075
5154,14316,2079,2079
5155,14319,2083,2083
5156,14322,2088,2088
5157,14325,2093,2093
5158,14327,2099,2099
5159,14330,2106,2106
5160,14333,2113,2113
5161,14336,2121,2121
5162,14338,2128,2128
5163,14341,2135,2135
5164,14344,2142,2142
5165,14347,2148,2148
5166,14350,2152,2152
5167,14352,2156,2156
5168,14355,2158,2158
5169,14358,2159,2159
5170,14361,2157,2157
5171,14363,2155,2155
5172,14366,2151,2151
5173,14369,2145,2145
5174,14372,2138,2138
5175,14375,2131,2131
5176,14377,2123,2123
5177,14380,2115,2115
5178,14383,2107,2107
5179,14386,2099,2099
5180,14388,2091,2091
5181,14391,2084,2084
5182,14394,2078,2078
5183,14397,2072,2072
5184,14400,2067,2067
5185,14402,2063,2063
5186,14405,2059,2059
5187,14408,2056,2056
5188,14411,2053,2053
5189,14413,2051,2051
5190,14416,2049,2049
5191,14419,2047,2047
5192,14422,2045,2045
5193,14425,2044,2044
5194,14427,2042,2042
5195,14430,2041,2041
5196,14433,2040,2040
5197,14436,2039,2039
5198,14438,2038,2038
5199,14441,2037,2037
5200,14444,2037,2037
5201,14447,2036,2036
5202,14450,2035,2035
5203,14452,2035,2035
5204,14455,2035,2035
5205,14458,2035,2035
5206,14461,2035,2035
5207,14463,2035,2035
5208,14466,2036,2036
5209,14469,2036,2036
5210,14472,2037,2037
5211,14475,2038,2038
5212,14477,2039,2039
5213,14480,2040,2040
5214,14483,2042,2042
5215,14486,2043,2043
5216,14488,2045,2045
5217,14491,2047,2047
5218,14494,2049,2049
5219,14497,2051,2051
5220,14500,2053,2053
5221,14502,2055,2055
5222,14505,2056,2056
5223,14508,2058,2058
5224,14511,2060,2060
5225,14513,2062,2062
5226,14516,2063,2063
5227,14519,2064,2064
5228,14522,2066,2066
5229,14525,2048,2048
5230,14527,2050,2050
5231,14530,2052,2052
5232,14533,2054,2054
5233,14536,2056,2056
5234,14538,2058,2058
5235,14541,2060,2060
5236,14544,2062,2062
5237,14547,2063,2063
5238,14550,2064,2064
5239,14552,2065,2065
5240,14555,2066,2066
5241,14558,2066,2066
5242,14561,2067,2067
5243,14563,2067,2067
5244,14566,2067,2067
5245,14569,2066,2066
5246,14572,2066,2066
5247,14575,2065,2065
5248,14577,2064,2064
5249,14580,2063,2063
5250,14583,2061,2061
5251,14586,2060,2060
5252,14588,2058,2058
5253,14591,2057,2057
5254,14594,2055,2055
5255,14597,2053,2053
5256,14600,2052,2052
5257,14602,2050,2050
5258,14605,2049,2049
5259,14608,2047,2047
5260,14611,2046,2046
5261,14613,2044,2044
5262,14616,2043,2043
5263,14619,2042,2042
5264,14622,2041,2041
5265,14625,2040,2040
5266,14627,2040,2040
5267,14630,2039,2039
5268,14633,2039,2039
5269,14636,2039,2039
5270,14638,2039,2039
5271,14641,2039,2039
5272,14644,2039,2039
5273,14647,2039,2039
5274,14650,2040,2040
5275,14652,2040,2040
5276,14655,2040,2040
5277,14658,2041,2041
5278,14661,2041,2041
5279,14663,2042,2042
5280,14666,2042,2042
5281,14669,2043,2043
5282,14672,2043,2043
5283,14675,2044,2044
5284,14677,2044,2044
5285,14680,2044,2044
5286,14683,2044,2044
5287,14686,2044,2044
5288,14688,2045,2045
5289,14691,2045,2045
5290,14694,2044,2044
5291,14697,2044,2044
5292,14700,2044,2044
5293,14702,2044,2044
5294,14705,2044,2044
5295,14708,2044,2044
5296,14711,2043,2043
5297,14713,2043,2043
5298,14716,2043,2043
5299,14719,2043,2043
5300,14722,2043,2043
5301,14725,2043,2043
5302,14727,2043,2043
5303,14730,2044,2044
5304,14733,2044,2044
5305,14736,2045,2045
5306,14738,2045,2045
5307,14741,2046,2046
5308,14744,2047,2047
5309,14747,2048,2048
5310,14750,2048,2048
5311,14752,2048,2048
5312,14755,2042,2042
5313,14758,2034,2034
5314,14761,2026,2026
5315,14763,2037,2037
5316,14766,2085,2085
5317,14769,2169,2169
5318,14772,2281,2281
5319,14775,2408,2408
5320,14777,2534,2534
5321,14780,2627,2627
5322,14783,2663,2663
5323,14786,2629,2629
5324,14788,2535,2535
5325,14791,2410,2410
5326,14794,2282,2282
5327,14797,2168,2168
5328,14800,2072,2072
5329,14802,1995,1995
5330,14805,1940,1940
5331,14808,1912,1912
5332,14811,1925,1925
5333,14813,1958,1958
5334,14816,1996,1996
5335,14819,2026,2026
5336,14822,2042,2042
5337,14825,2048,2048
5338,14827,2051,2051
5339,14830,2049,2049
5340,14833,2047,2047
5341,14836,2044,2044
5342,14838,2042,2042
5343,14841,2040,2040
5344,14844,2038,2038
5345,14847,2037,2037
5346,14850,2035,2035
5347,14852,2033,2033
5348,14855,2032,2032
5349,14858,2031,2031
5350,14861,2030,2030
5351,14863,2029,2029
5352,14866,2028,2028
5353,14869,2028,2028
5354,14872,2028,2028
5355,14875,2028,2028
5356,14877,2029,2029
5357,14880,2030,2030
5358,14883,2030,2030
5359,14886,2032,2032
5360,14888,2033,2033
5361,14891,2034,2034
5362,14894,2036,2036
5363,14897,2038,2038
5364,14900,2040,2040
5365,14902,2041,2041
5366,14905,2043,2043
5367,14908,2045,2045
5368,14911,2047,2047
5369,14913,2049,2049
5370,14916,2051,2051
5371,14919,2053,2053
5372,14922,2054,2054
5373,14925,2056,2056
5374,14927,2057,2057
5375,14930,2058,2058
5376,14933,2060,2060
5377,14936,2061,2061
5378,14938,2062,2062
5379,14941,2064,2064
5380,14944,2065,2065
5381,14947,2066,2066
5382,14950,2068,2068
5383,14952,2070,2070
5384,14955,2072,2072
5385,14958,2075,2075
5386,14961,2079,2079
5387,14963,2083,2083
5388,14966,2088,2088
5389,14969,2093,2093
5390,14972,2099,2099
5391,14975,2106,2106
5392,14977,2113,2113
5393,14980,2121,2121
5394,14983,2128,2128
5395,14986,2135,2135
5396,14988,2142,2142
5397,14991,2148,2148
5398,14994,2152,2152
5399,14997,2156,2156
