Index,Time_ms,Raw,Filtered
0,0,2048,2048
1,2,2048,2048
2,5,2048,2048
3,8,2048,2048
4,11,2048,2048
5,13,2048,2048
6,16,2048,2048
7,19,2048,2048
8,22,2048,2048
9,25,2048,2048
10,27,2048,2048
11,30,2048,2048
12,33,2048,2048
13,36,2048,2048
14,38,2048,2048
15,41,2048,2048
16,44,2048,2048
17,47,2048,2048
18,50,2048,2048
19,52,2048,2048
20,55,2048,2048
21,58,2049,2049
22,61,2049,2049
23,63,2050,2050
24,66,2052,2052
25,69,2054,2054
26,72,2057,2057
27,75,2061,2061
28,77,2066,2066
29,80,2072,2072
30,83,2078,2078
31,86,2085,2085
32,88,2092,2092
33,91,2099,2099
34,94,2104,2104
35,97,2107,2107
36,100,2108,2108
37,102,2107,2107
38,105,2104,2104
39,108,2099,2099
40,111,2092,2092
41,113,2085,2085
42,116,2078,2078
43,119,2072,2072
44,122,2066,2066
45,125,2061,2061
46,127,2057,2057
47,130,2054,2054
48,133,2052,2052
49,136,2050,2050
50,138,2049,2049
51,141,2049,2049
52,144,2048,2048
53,147,2048,2048
54,150,2048,2048
55,152,2048,2048
56,155,2048,2048
57,158,2048,2048
58,161,2048,2048
59,163,2048,2048
60,166,2048,2048
61,169,2048,2048
62,172,2048,2048
63,175,2048,2048
64,177,2048,2048
65,180,2048,2048
66,183,2048,2048
67,186,2048,2048
68,188,2048,2048
69,191,2048,2048
70,194,2048,2048
71,197,2048,2048
72,200,2048,2048
73,202,2048,2048
74,205,2048,2048
75,208,2048,2048
76,211,2048,2048
77,213,2048,2048
78,216,2048,2048
79,219,2048,2048
80,222,2048,2048
81,225,2048,2048
82,227,2048,2048
83,230,2048,2048
84,233,2048,2048
85,236,2048,2048
86,238,2048,2048
87,241,2048,2048
88,244,2048,2048
89,247,2048,2048
90,250,2048,2048
91,252,2048,2048
92,255,2048,2048
93,258,2048,2048
94,261,2048,2048
95,263,2048,2048
96,266,2048,2048
97,269,2048,2048
98,272,2048,2048
99,275,2048,2048
100,277,2048,2048
101,280,2048,2048
102,283,2048,2048
103,286,2048,2048
104,288,2048,2048
105,291,2048,2048
106,294,2048,2048
107,297,2048,2048
108,300,2048,2048
109,302,2048,2048
110,305,2048,2048
111,308,2048,2048
112,311,2048,2048
113,313,2048,2048
114,316,2048,2048
115,319,2048,2048
116,322,2048,2048
117,325,2048,2048
118,327,2048,2048
119,330,2048,2048
120,333,2048,2048
121,336,2048,2048
122,338,2048,2048
123,341,2048,2048
124,344,2048,2048
125,347,2048,2048
126,350,2048,2048
127,352,2048,2048
128,355,2048,2048
129,358,2048,2048
130,361,2048,2048
131,363,2048,2048
132,366,2048,2048
133,369,2048,2048
134,372,2048,2048
135,375,2048,2048
136,377,2048,2048
137,380,2048,2048
138,383,2048,2048
139,386,2048,2048
140,388,2048,2048
141,391,2048,2048
142,394,2048,2048
143,397,2048,2048
144,400,2048,2048
145,402,2048,2048
146,405,2048,2048
147,408,2048,2048
148,411,2048,2048
149,413,2048,2048
150,416,2046,2046
151,419,2039,2039
152,422,2030,2030
153,425,2020,2020
154,427,2030,2030
155,430,2077,2077
156,433,2160,2160
157,436,2270,2270
158,438,2396,2396
159,441,2520,2520
160,444,2613,2613
161,447,2648,2648
162,450,2613,2613
163,452,2519,2519
164,455,2394,2394
165,458,2266,2266
166,461,2152,2152
167,463,2056,2056
168,466,1979,1979
169,469,1925,1925
170,472,1898,1898
171,475,1912,1912
172,477,1947,1947
173,480,1986,1986
174,483,2017,2017
175,486,2035,2035
176,488,2044,2044
177,491,2048,2048
178,494,2048,2048
179,497,2048,2048
180,500,2048,2048
181,502,2048,2048
182,505,2048,2048
183,508,2048,2048
184,511,2048,2048
185,513,2048,2048
186,516,2048,2048
187,519,2048,2048
188,522,2048,2048
189,525,2048,2048
190,527,2048,2048
191,530,2048,2048
192,533,2048,2048
193,536,2048,2048
194,538,2048,2048
195,541,2048,2048
196,544,2048,2048
197,547,2048,2048
198,550,2048,2048
199,552,2048,2048
200,555,2048,2048
201,558,2048,2048
202,561,2048,2048
203,563,2048,2048
204,566,2048,2048
205,569,2048,2048
206,572,2048,2048
207,575,2048,2048
208,577,2048,2048
209,580,2048,2048
210,583,2048,2048
211,586,2048,2048
212,588,2048,2048
213,591,2048,2048
214,594,2048,2048
215,597,2049,2049
216,600,2049,2049
217,602,2050,2050
218,605,2051,2051
219,608,2052,2052
220,611,2053,2053
221,613,2055,2055
222,616,2057,2057
223,619,2060,2060
224,622,2063,2063
225,625,2067,2067
226,627,2072,2072
227,630,2078,2078
228,633,2084,2084
229,636,2091,2091
230,638,2099,2099
231,641,2107,2107
232,644,2115,2115
233,647,2123,2123
234,650,2131,2131
235,652,2139,2139
236,655,2145,2145
237,658,2151,2151
238,661,2155,2155
239,663,2157,2157
240,666,2158,2158
241,669,2157,2157
242,672,2155,2155
243,675,2151,2151
244,677,2145,2145
245,680,2139,2139
246,683,2131,2131
247,686,2123,2123
248,688,2115,2115
249,691,2107,2107
250,694,2099,2099
251,697,2091,2091
252,700,2084,2084
253,702,2078,2078
254,705,2072,2072
255,708,2067,2067
256,711,2063,2063
257,713,2060,2060
258,716,2057,2057
259,719,2055,2055
260,722,2053,2053
261,725,2052,2052
262,727,2051,2051
263,730,2050,2050
264,733,2049,2049
265,736,2048,2048
266,738,2048,2048
267,741,2048,2048
268,744,2048,2048
269,747,2048,2048
270,750,2048,2048
271,752,2048,2048
272,755,2048,2048
273,758,2048,2048
274,761,2048,2048
275,763,2048,2048
276,766,2048,2048
277,769,2048,2048
278,772,2048,2048
279,775,2048,2048
280,777,2048,2048
281,780,2048,2048
282,783,2048,2048
283,786,2048,2048
284,788,2048,2048
285,791,2048,2048
286,794,2048,2048
287,797,2048,2048
288,800,2048,2048
289,802,2048,2048
290,805,2048,2048
291,808,2048,2048
292,811,2048,2048
293,813,2048,2048
294,816,2048,2048
295,819,2048,2048
296,822,2048,2048
297,825,2048,2048
298,827,2048,2048
299,830,2048,2048
300,833,2048,2048
301,836,2048,2048
302,838,2048,2048
303,841,2048,2048
304,844,2048,2048
305,847,2048,2048
306,850,2048,2048
307,852,2048,2048
308,855,2048,2048
309,858,2049,2049
310,861,2049,2049
311,863,2050,2050
312,866,2052,2052
313,869,2054,2054
314,872,2057,2057
315,875,2061,2061
316,877,2066,2066
317,880,2072,2072
318,883,2078,2078
319,886,2085,2085
320,888,2092,2092
321,891,2099,2099
322,894,2104,2104
323,897,2107,2107
324,900,2108,2108
325,902,2107,2107
326,905,2104,2104
327,908,2099,2099
328,911,2092,2092
329,913,2085,2085
330,916,2078,2078
331,919,2072,2072
332,922,2066,2066
333,925,2061,2061
334,927,2057,2057
335,930,2054,2054
336,933,2052,2052
337,936,2050,2050
338,938,2049,2049
339,941,2049,2049
340,944,2048,2048
341,947,2048,2048
342,950,2048,2048
343,952,2048,2048
344,955,2048,2048
345,958,2048,2048
346,961,2048,2048
347,963,2048,2048
348,966,2048,2048
349,969,2048,2048
350,972,2048,2048
351,975,2048,2048
352,977,2048,2048
353,980,2048,2048
354,983,2048,2048
355,986,2048,2048
356,988,2048,2048
357,991,2048,2048
358,994,2048,2048
359,997,2048,2048
360,1000,2048,2048
361,1002,2048,2048
362,1005,2048,2048
363,1008,2048,2048
364,1011,2048,2048
365,1013,2048,2048
366,1016,2048,2048
367,1019,2048,2048
368,1022,2048,2048
369,1025,2048,2048
370,1027,2048,2048
371,1030,2048,2048
372,1033,2048,2048
373,1036,2048,2048
374,1038,2048,2048
375,1041,2048,2048
376,1044,2048,2048
377,1047,2048,2048
378,1050,2048,2048
379,1052,2048,2048
380,1055,2048,2048
381,1058,2048,2048
382,1061,2048,2048
383,1063,2048,2048
384,1066,2048,2048
385,1069,2048,2048
386,1072,2048,2048
387,1075,2048,2048
388,1077,2048,2048
389,1080,2048,2048
390,1083,2048,2048
391,1086,2048,2048
392,1088,2048,2048
393,1091,2048,2048
394,1094,2048,2048
395,1097,2048,2048
396,1100,2048,2048
397,1102,2048,2048
398,1105,2048,2048
399,1108,2048,2048
400,1111,2048,2048
401,1113,2048,2048
402,1116,2048,2048
403,1119,2048,2048
404,1122,2048,2048
405,1125,2048,2048
406,1127,2048,2048
407,1130,2048,2048
408,1133,2048,2048
409,1136,2048,2048
410,1138,2048,2048
411,1141,2048,2048
412,1144,2048,2048
413,1147,2048,2048
414,1150,2048,2048
415,1152,2048,2048
416,1155,2048,2048
417,1158,2048,2048
418,1161,2048,2048
419,1163,2048,2048
420,1166,2048,2048
421,1169,2048,2048
422,1172,2048,2048
423,1175,2048,2048
424,1177,2048,2048
425,1180,2048,2048
426,1183,2048,2048
427,1186,2048,2048
428,1188,2048,2048
429,1191,2048,2048
430,1194,2048,2048
431,1197,2048,2048
432,1200,2048,2048
433,1202,2048,2048
434,1205,2048,2048
435,1208,2048,2048
436,1211,2048,2048
437,1213,2048,2048
438,1216,2046,2046
439,1219,2039,2039
440,1222,2030,2030
441,1225,2020,2020
442,1227,2030,2030
443,1230,2077,2077
444,1233,2160,2160
445,1236,2270,2270
446,1238,2396,2396
447,1241,2520,2520
448,1244,2613,2613
449,1247,2648,2648
450,1250,2613,2613
451,1252,2519,2519
452,1255,2394,2394
453,1258,2266,2266
454,1261,2152,2152
455,1263,2056,2056
456,1266,1979,1979
457,1269,1925,1925
458,1272,1898,1898
459,1275,1912,1912
460,1277,1947,1947
461,1280,1986,1986
462,1283,2017,2017
463,1286,2035,2035
464,1288,2044,2044
465,1291,2048,2048
466,1294,2048,2048
467,1297,2048,2048
468,1300,2048,2048
469,1302,2048,2048
470,1305,2048,2048
471,1308,2048,2048
472,1311,2048,2048
473,1313,2048,2048
474,1316,2048,2048
475,1319,2048,2048
476,1322,2048,2048
477,1325,2048,2048
478,1327,2048,2048
479,1330,2048,2048
480,1333,2048,2048
481,1336,2048,2048
482,1338,2048,2048
483,1341,2048,2048
484,1344,2048,2048
485,1347,2048,2048
486,1350,2048,2048
487,1352,2048,2048
488,1355,2048,2048
489,1358,2048,2048
490,1361,2048,2048
491,1363,2048,2048
492,1366,2048,2048
493,1369,2048,2048
494,1372,2048,2048
495,1375,2048,2048
496,1377,2048,2048
497,1380,2048,2048
498,1383,2048,2048
499,1386,2048,2048
500,1388,2048,2048
501,1391,2048,2048
502,1394,2048,2048
503,1397,2049,2049
504,1400,2049,2049
505,1402,2050,2050
506,1405,2051,2051
507,1408,2052,2052
508,1411,2053,2053
509,1413,2055,2055
510,1416,2057,2057
511,1419,2060,2060
512,1422,2063,2063
513,1425,2067,2067
514,1427,2072,2072
515,1430,2078,2078
516,1433,2084,2084
517,1436,2091,2091
518,1438,2099,2099
519,1441,2107,2107
520,1444,2115,2115
521,1447,2123,2123
522,1450,2131,2131
523,1452,2139,2139
524,1455,2145,2145
525,1458,2151,2151
526,1461,2155,2155
527,1463,2157,2157
528,1466,2158,2158
529,1469,2157,2157
530,1472,2155,2155
531,1475,2151,2151
532,1477,2145,2145
533,1480,2139,2139
534,1483,2131,2131
535,1486,2123,2123
536,1488,2115,2115
537,1491,2107,2107
538,1494,2099,2099
539,1497,2091,2091
540,1500,2084,2084
541,1502,2078,2078
542,1505,2072,2072
543,1508,2067,2067
544,1511,2063,2063
545,1513,2060,2060
546,1516,2057,2057
547,1519,2055,2055
548,1522,2053,2053
549,1525,2052,2052
550,1527,2051,2051
551,1530,2050,2050
552,1533,2049,2049
553,1536,2048,2048
554,1538,2048,2048
555,1541,2048,2048
556,1544,2048,2048
557,1547,2048,2048
558,1550,2048,2048
559,1552,2048,2048
560,1555,2048,2048
561,1558,2048,2048
562,1561,2048,2048
563,1563,2048,2048
564,1566,2048,2048
565,1569,2048,2048
566,1572,2048,2048
567,1575,2048,2048
568,1577,2048,2048
569,1580,2048,2048
570,1583,2048,2048
571,1586,2048,2048
572,1588,2048,2048
573,1591,2048,2048
574,1594,2048,2048
575,1597,2048,2048
576,1600,2048,2048
577,1602,2048,2048
578,1605,2048,2048
579,1608,2048,2048
580,1611,2048,2048
581,1613,2048,2048
582,1616,2048,2048
583,1619,2048,2048
584,1622,2048,2048
585,1625,2048,2048
586,1627,2048,2048
587,1630,2048,2048
588,1633,2048,2048
589,1636,2048,2048
590,1638,2048,2048
591,1641,2048,2048
592,1644,2048,2048
593,1647,2048,2048
594,1650,2048,2048
595,1652,2048,2048
596,1655,2048,2048
597,1658,2049,2049
598,1661,2049,2049
599,1663,2050,2050
600,1666,2052,2052
601,1669,2054,2054
602,1672,2057,2057
603,1675,2061,2061
604,1677,2066,2066
605,1680,2072,2072
606,1683,2078,2078
607,1686,2085,2085
608,1688,2092,2092
609,1691,2099,2099
610,1694,2104,2104
611,1697,2107,2107
612,1700,2108,2108
613,1702,2107,2107
614,1705,2104,2104
615,1708,2099,2099
616,1711,2092,2092
617,1713,2085,2085
618,1716,2078,2078
619,1719,2072,2072
620,1722,2066,2066
621,1725,2061,2061
622,1727,2057,2057
623,1730,2054,2054
624,1733,2052,2052
625,1736,2050,2050
626,1738,2049,2049
627,1741,2049,2049
628,1744,2048,2048
629,1747,2048,2048
630,1750,2048,2048
631,1752,2048,2048
632,1755,2048,2048
633,1758,2048,2048
634,1761,2048,2048
635,1763,2048,2048
636,1766,2048,2048
637,1769,2048,2048
638,1772,2048,2048
639,1775,2048,2048
640,1777,2048,2048
641,1780,2048,2048
642,1783,2048,2048
643,1786,2048,2048
644,1788,2048,2048
645,1791,2048,2048
646,1794,2048,2048
647,1797,2048,2048
648,1800,2048,2048
649,1802,2048,2048
650,1805,2048,2048
651,1808,2048,2048
652,1811,2048,2048
653,1813,2048,2048
654,1816,2048,2048
655,1819,2048,2048
656,1822,2048,2048
657,1825,2048,2048
658,1827,2048,2048
659,1830,2048,2048
660,1833,2048,2048
661,1836,2048,2048
662,1838,2048,2048
663,1841,2048,2048
664,1844,2048,2048
665,1847,2048,2048
666,1850,2048,2048
667,1852,2048,2048
668,1855,2048,2048
669,1858,2048,2048
670,1861,2048,2048
671,1863,2048,2048
672,1866,2048,2048
673,1869,2048,2048
674,1872,2048,2048
675,1875,2048,2048
676,1877,2048,2048
677,1880,2048,2048
678,1883,2048,2048
679,1886,2048,2048
680,1888,2048,2048
681,1891,2048,2048
682,1894,2048,2048
683,1897,2048,2048
684,1900,2048,2048
685,1902,2048,2048
686,1905,2048,2048
687,1908,2048,2048
688,1911,2048,2048
689,1913,2048,2048
690,1916,2048,2048
691,1919,2048,2048
692,1922,2048,2048
693,1925,2048,2048
694,1927,2048,2048
695,1930,2048,2048
696,1933,2048,2048
697,1936,2048,2048
698,1938,2048,2048
699,1941,2048,2048
700,1944,2048,2048
701,1947,2048,2048
702,1950,2048,2048
703,1952,2048,2048
704,1955,2048,2048
705,1958,2048,2048
706,1961,2048,2048
707,1963,2048,2048
708,1966,2048,2048
709,1969,2048,2048
710,1972,2048,2048
711,1975,2048,2048
712,1977,2048,2048
713,1980,2048,2048
714,1983,2048,2048
715,1986,2048,2048
716,1988,2048,2048
717,1991,2048,2048
718,1994,2048,2048
719,1997,2048,2048
720,2000,2048,2048
721,2002,2048,2048
722,2005,2048,2048
723,2008,2048,2048
724,2011,2048,2048
725,2013,2048,2048
726,2016,2046,2046
727,2019,2039,2039
728,2022,2030,2030
729,2025,2020,2020
730,2027,2030,2030
731,2030,2077,2077
732,2033,2160,2160
733,2036,2270,2270
734,2038,2396,2396
735,2041,2520,2520
736,2044,2613,2613
737,2047,2648,2648
738,2050,2613,2613
739,2052,2519,2519
740,2055,2394,2394
741,2058,2266,2266
742,2061,2152,2152
743,2063,2056,2056
744,2066,1979,1979
745,2069,1925,1925
746,2072,1898,1898
747,2075,1912,1912
748,2077,1947,1947
749,2080,1986,1986
750,2083,2017,2017
751,2086,2035,2035
752,2088,2044,2044
753,2091,2048,2048
754,2094,2048,2048
755,2097,2048,2048
756,2100,2048,2048
757,2102,2048,2048
758,2105,2048,2048
759,2108,2048,2048
760,2111,2048,2048
761,2113,2048,2048
762,2116,2048,2048
763,2119,2048,2048
764,2122,2048,2048
765,2125,2048,2048
766,2127,2048,2048
767,2130,2048,2048
768,2133,2048,2048
769,2136,2048,2048
770,2138,2048,2048
771,2141,2048,2048
772,2144,2048,2048
773,2147,2048,2048
774,2150,2048,2048
775,2152,2048,2048
776,2155,2048,2048
777,2158,2048,2048
778,2161,2048,2048
779,2163,2048,2048
780,2166,2048,2048
781,2169,2048,2048
782,2172,2048,2048
783,2175,2048,2048
784,2177,2048,2048
785,2180,2048,2048
786,2183,2048,2048
787,2186,2048,2048
788,2188,2048,2048
789,2191,2048,2048
790,2194,2048,2048
791,2197,2049,2049
792,2200,2049,2049
793,2202,2050,2050
794,2205,2051,2051
795,2208,2052,2052
796,2211,2053,2053
797,2213,2055,2055
798,2216,2057,2057
799,2219,2060,2060
800,2222,2063,2063
801,2225,2067,2067
802,2227,2072,2072
803,2230,2078,2078
804,2233,2084,2084
805,2236,2091,2091
806,2238,2099,2099
807,2241,2107,2107
808,2244,2115,2115
809,2247,2123,2123
810,2250,2131,2131
811,2252,2139,2139
812,2255,2145,2145
813,2258,2151,2151
814,2261,2155,2155
815,2263,2157,2157
816,2266,2158,2158
817,2269,2157,2157
818,2272,2155,2155
819,2275,2151,2151
820,2277,2145,2145
821,2280,2139,2139
822,2283,2131,2131
823,2286,2123,2123
824,2288,2115,2115
825,2291,2107,2107
826,2294,2099,2099
827,2297,2091,2091
828,2300,2084,2084
829,2302,2078,2078
830,2305,2072,2072
831,2308,2067,2067
832,2311,2063,2063
833,2313,2060,2060
834,2316,2057,2057
835,2319,2055,2055
836,2322,2053,2053
837,2325,2052,2052
838,2327,2051,2051
839,2330,2050,2050
840,2333,2049,2049
841,2336,2048,2048
842,2338,2048,2048
843,2341,2048,2048
844,2344,2048,2048
845,2347,2048,2048
846,2350,2048,2048
847,2352,2048,2048
848,2355,2048,2048
849,2358,2048,2048
850,2361,2048,2048
851,2363,2048,2048
852,2366,2048,2048
853,2369,2048,2048
854,2372,2048,2048
855,2375,2048,2048
856,2377,2048,2048
857,2380,2048,2048
858,2383,2048,2048
859,2386,2048,2048
860,2388,2048,2048
861,2391,2048,2048
862,2394,2048,2048
863,2397,2048,2048
864,2400,2048,2048
865,2402,2048,2048
866,2405,2048,2048
867,2408,2048,2048
868,2411,2048,2048
869,2413,2048,2048
870,2416,2048,2048
871,2419,2048,2048
872,2422,2048,2048
873,2425,2048,2048
874,2427,2048,2048
875,2430,2048,2048
876,2433,2048,2048
877,2436,2048,2048
878,2438,2048,2048
879,2441,2048,2048
880,2444,2048,2048
881,2447,2048,2048
882,2450,2048,2048
883,2452,2048,2048
884,2455,2048,2048
885,2458,2049,2049
886,2461,2049,2049
887,2463,2050,2050
888,2466,2052,2052
889,2469,2054,2054
890,2472,2057,2057
891,2475,2061,2061
892,2477,2066,2066
893,2480,2072,2072
894,2483,2078,2078
895,2486,2085,2085
896,2488,2092,2092
897,2491,2099,2099
898,2494,2104,2104
899,2497,2107,2107
900,2500,2108,2108
901,2502,2107,2107
902,2505,2104,2104
903,2508,2099,2099
904,2511,2092,2092
905,2513,2085,2085
906,2516,2078,2078
907,2519,2072,2072
908,2522,2066,2066
909,2525,2061,2061
910,2527,2057,2057
911,2530,2054,2054
912,2533,2052,2052
913,2536,2050,2050
914,2538,2049,2049
915,2541,2049,2049
916,2544,2048,2048
917,2547,2048,2048
918,2550,2048,2048
919,2552,2048,2048
920,2555,2048,2048
921,2558,2048,2048
922,2561,2048,2048
923,2563,2048,2048
924,2566,2048,2048
925,2569,2048,2048
926,2572,2048,2048
927,2575,2048,2048
928,2577,2048,2048
929,2580,2048,2048
930,2583,2048,2048
931,2586,2048,2048
932,2588,2048,2048
933,2591,2048,2048
934,2594,2048,2048
935,2597,2048,2048
936,2600,2048,2048
937,2602,2048,2048
938,2605,2048,2048
939,2608,2048,2048
940,2611,2048,2048
941,2613,2048,2048
942,2616,2048,2048
943,2619,2048,2048
944,2622,2048,2048
945,2625,2048,2048
946,2627,2048,2048
947,2630,2048,2048
948,2633,2048,2048
949,2636,2048,2048
950,2638,2048,2048
951,2641,2048,2048
952,2644,2048,2048
953,2647,2048,2048
954,2650,2048,2048
955,2652,2048,2048
956,2655,2048,2048
957,2658,2048,2048
958,2661,2048,2048
959,2663,2048,2048
960,2666,2048,2048
961,2669,2048,2048
962,2672,2048,2048
963,2675,2048,2048
964,2677,2048,2048
965,2680,2048,2048
966,2683,2048,2048
967,2686,2048,2048
968,2688,2048,2048
969,2691,2048,2048
970,2694,2048,2048
971,2697,2048,2048
972,2700,2048,2048
973,2702,2048,2048
974,2705,2048,2048
975,2708,2048,2048
976,2711,2048,2048
977,2713,2048,2048
978,2716,2048,2048
979,2719,2048,2048
980,2722,2048,2048
981,2725,2048,2048
982,2727,2048,2048
983,2730,2048,2048
984,2733,2048,2048
985,2736,2048,2048
986,2738,2048,2048
987,2741,2048,2048
988,2744,2048,2048
989,2747,2048,2048
990,2750,2048,2048
991,2752,2048,2048
992,2755,2048,2048
993,2758,2048,2048
994,2761,2048,2048
995,2763,2048,2048
996,2766,2048,2048
997,2769,2048,2048
998,2772,2048,2048
999,2775,2048,2048
1000,2777,2048,2048
1001,2780,2048,2048
1002,2783,2048,2048
1003,2786,2048,2048
1004,2788,2048,2048
1005,2791,2048,2048
1006,2794,2048,2048
1007,2797,2048,2048
1008,2800,2048,2048
1009,2802,2048,2048
1010,2805,2048,2048
1011,2808,2048,2048
1012,2811,2048,2048
1013,2813,2048,2048
1014,2816,2046,2046
1015,2819,2039,2039
1016,2822,2030,2030
1017,2825,2020,2020
1018,2827,2030,2030
1019,2830,2077,2077
1020,2833,2160,2160
1021,2836,2270,2270
1022,2838,2396,2396
1023,2841,2520,2520
1024,2844,2613,2613
1025,2847,2648,2648
1026,2850,2613,2613
1027,2852,2519,2519
1028,2855,2394,2394
1029,2858,2266,2266
1030,2861,2152,2152
1031,2863,2056,2056
1032,2866,1979,1979
1033,2869,1925,1925
1034,2872,1898,1898
1035,2875,1912,1912
1036,2877,1947,1947
1037,2880,1986,1986
1038,2883,2017,2017
1039,2886,2035,2035
1040,2888,2044,2044
1041,2891,2048,2048
1042,2894,2048,2048
1043,2897,2048,2048
1044,2900,2048,2048
1045,2902,2048,2048
1046,2905,2048,2048
1047,2908,2048,2048
1048,2911,2048,2048
1049,2913,2048,2048
1050,2916,2048,2048
1051,2919,2048,2048
1052,2922,2048,2048
1053,2925,2048,2048
1054,2927,2048,2048
1055,2930,2048,2048
1056,2933,2048,2048
1057,2936,2048,2048
1058,2938,2048,2048
1059,2941,2048,2048
1060,2944,2048,2048
1061,2947,2048,2048
1062,2950,2048,2048
1063,2952,2048,2048
1064,2955,2048,2048
1065,2958,2048,2048
1066,2961,2048,2048
1067,2963,2048,2048
1068,2966,2048,2048
1069,2969,2048,2048
1070,2972,2048,2048
1071,2975,2048,2048
1072,2977,2048,2048
1073,2980,2048,2048
1074,2983,2048,2048
1075,2986,2048,2048
1076,2988,2048,2048
1077,2991,2048,2048
1078,2994,2048,2048
1079,2997,2049,2049
1080,3000,2049,2049
1081,3002,2050,2050
1082,3005,2051,2051
1083,3008,2052,2052
1084,3011,2053,2053
1085,3013,2055,2055
1086,3016,2057,2057
1087,3019,2060,2060
1088,3022,2063,2063
1089,3025,2067,2067
1090,3027,2072,2072
1091,3030,2078,2078
1092,3033,2084,2084
1093,3036,2091,2091
1094,3038,2099,2099
1095,3041,2107,2107
1096,3044,2115,2115
1097,3047,2123,2123
1098,3050,2131,2131
1099,3052,2139,2139
1100,3055,2145,2145
1101,3058,2151,2151
1102,3061,2155,2155
1103,3063,2157,2157
1104,3066,2158,2158
1105,3069,2157,2157
1106,3072,2155,2155
1107,3075,2151,2151
1108,3077,2145,2145
1109,3080,2139,2139
1110,3083,2131,2131
1111,3086,2123,2123
1112,3088,2115,2115
1113,3091,2107,2107
1114,3094,2099,2099
1115,3097,2091,2091
1116,3100,2084,2084
1117,3102,2078,2078
1118,3105,2072,2072
1119,3108,2067,2067
1120,3111,2063,2063
1121,3113,2060,2060
1122,3116,2057,2057
1123,3119,2055,2055
1124,3122,2053,2053
1125,3125,2052,2052
1126,3127,2051,2051
1127,3130,2050,2050
1128,3133,2049,2049
1129,3136,2048,2048
1130,3138,2048,2048
1131,3141,2048,2048
1132,3144,2048,2048
1133,3147,2048,2048
1134,3150,2048,2048
1135,3152,2048,2048
1136,3155,2048,2048
1137,3158,2048,2048
1138,3161,2048,2048
1139,3163,2048,2048
1140,3166,2048,2048
1141,3169,2048,2048
1142,3172,2048,2048
1143,3175,2048,2048
1144,3177,2048,2048
1145,3180,2048,2048
1146,3183,2048,2048
1147,3186,2048,2048
1148,3188,2048,2048
1149,3191,2048,2048
1150,3194,2048,2048
1151,3197,2048,2048
1152,3200,2048,2048
1153,3202,2048,2048
1154,3205,2048,2048
1155,3208,2048,2048
1156,3211,2048,2048
1157,3213,2048,2048
1158,3216,2048,2048
1159,3219,2048,2048
1160,3222,2048,2048
1161,3225,2048,2048
1162,3227,2048,2048
1163,3230,2048,2048
1164,3233,2048,2048
1165,3236,2048,2048
1166,3238,2048,2048
1167,3241,2048,2048
1168,3244,2048,2048
1169,3247,2048,2048
1170,3250,2048,2048
1171,3252,2048,2048
1172,3255,2048,2048
1173,3258,2049,2049
1174,3261,2049,2049
1175,3263,2050,2050
1176,3266,2052,2052
1177,3269,2054,2054
1178,3272,2057,2057
1179,3275,2061,2061
1180,3277,2066,2066
1181,3280,2072,2072
1182,3283,2078,2078
1183,3286,2085,2085
1184,3288,2092,2092
1185,3291,2099,2099
1186,3294,2104,2104
1187,3297,2107,2107
1188,3300,2108,2108
1189,3302,2107,2107
1190,3305,2104,2104
1191,3308,2099,2099
1192,3311,2092,2092
1193,3313,2085,2085
1194,3316,2078,2078
1195,3319,2072,2072
1196,3322,2066,2066
1197,3325,2061,2061
1198,3327,2057,2057
1199,3330,2054,2054
1200,3333,2052,2052
1201,3336,2050,2050
1202,3338,2049,2049
1203,3341,2049,2049
1204,3344,2048,2048
1205,3347,2048,2048
1206,3350,2048,2048
1207,3352,2048,2048
1208,3355,2048,2048
1209,3358,2048,2048
1210,3361,2048,2048
1211,3363,2048,2048
1212,3366,2048,2048
1213,3369,2048,2048
1214,3372,2048,2048
1215,3375,2048,2048
1216,3377,2048,2048
1217,3380,2048,2048
1218,3383,2048,2048
1219,3386,2048,2048
1220,3388,2048,2048
1221,3391,2048,2048
1222,3394,2048,2048
1223,3397,2048,2048
1224,3400,2048,2048
1225,3402,2048,2048
1226,3405,2048,2048
1227,3408,2048,2048
1228,3411,2048,2048
1229,3413,2048,2048
1230,3416,2048,2048
1231,3419,2048,2048
1232,3422,2048,2048
1233,3425,2048,2048
1234,3427,2048,2048
1235,3430,2048,2048
1236,3433,2048,2048
1237,3436,2048,2048
1238,3438,2048,2048
1239,3441,2048,2048
1240,3444,2048,2048
1241,3447,2048,2048
1242,3450,2048,2048
1243,3452,2048,2048
1244,3455,2048,2048
1245,3458,2048,2048
1246,3461,2048,2048
1247,3463,2048,2048
1248,3466,2048,2048
1249,3469,2048,2048
1250,3472,2048,2048
1251,3475,2048,2048
1252,3477,2048,2048
1253,3480,2048,2048
1254,3483,2048,2048
1255,3486,2048,2048
1256,3488,2048,2048
1257,3491,2048,2048
1258,3494,2048,2048
1259,3497,2048,2048
1260,3500,2048,2048
1261,3502,2048,2048
1262,3505,2048,2048
1263,3508,2048,2048
1264,3511,2048,2048
1265,3513,2048,2048
1266,3516,2048,2048
1267,3519,2048,2048
1268,3522,2048,2048
1269,3525,2048,2048
1270,3527,2048,2048
1271,3530,2048,2048
1272,3533,2048,2048
1273,3536,2048,2048
1274,3538,2048,2048
1275,3541,2048,2048
1276,3544,2048,2048
1277,3547,2048,2048
1278,3550,2048,2048
1279,3552,2048,2048
1280,3555,2048,2048
1281,3558,2048,2048
1282,3561,2048,2048
1283,3563,2048,2048
1284,3566,2048,2048
1285,3569,2048,2048
1286,3572,2048,2048
1287,3575,2048,2048
1288,3577,2048,2048
1289,3580,2048,2048
1290,3583,2048,2048
1291,3586,2048,2048
1292,3588,2048,2048
1293,3591,2048,2048
1294,3594,2048,2048
1295,3597,2048,2048
1296,3600,2048,2048
1297,3602,2048,2048
1298,3605,2048,2048
1299,3608,2048,2048
1300,3611,2048,2048
1301,3613,2048,2048
1302,3616,2046,2046
1303,3619,2039,2039
1304,3622,2030,2030
1305,3625,2020,2020
1306,3627,2030,2030
1307,3630,2077,2077
1308,3633,2160,2160
1309,3636,2270,2270
1310,3638,2396,2396
1311,3641,2520,2520
1312,3644,2613,2613
1313,3647,2648,2648
1314,3650,2613,2613
1315,3652,2519,2519
1316,3655,2394,2394
1317,3658,2266,2266
1318,3661,2152,2152
1319,3663,2056,2056
1320,3666,1979,1979
1321,3669,1925,1925
1322,3672,1898,1898
1323,3675,1912,1912
1324,3677,1947,1947
1325,3680,1986,1986
1326,3683,2017,2017
1327,3686,2035,2035
1328,3688,2044,2044
1329,3691,2048,2048
1330,3694,2048,2048
1331,3697,2048,2048
1332,3700,2048,2048
1333,3702,2048,2048
1334,3705,2048,2048
1335,3708,2048,2048
1336,3711,2048,2048
1337,3713,2048,2048
1338,3716,2048,2048
1339,3719,2048,2048
1340,3722,2048,2048
1341,3725,2048,2048
1342,3727,2048,2048
1343,3730,2048,2048
1344,3733,2048,2048
1345,3736,2048,2048
1346,3738,2048,2048
1347,3741,2048,2048
1348,3744,2048,2048
1349,3747,2048,2048
1350,3750,2048,2048
1351,3752,2048,2048
1352,3755,2048,2048
1353,3758,2048,2048
1354,3761,2048,2048
1355,3763,2048,2048
1356,3766,2048,2048
1357,3769,2048,2048
1358,3772,2048,2048
1359,3775,2048,2048
1360,3777,2048,2048
1361,3780,2048,2048
1362,3783,2048,2048
1363,3786,2048,2048
1364,3788,2048,2048
1365,3791,2048,2048
1366,3794,2048,2048
1367,3797,2049,2049
1368,3800,2049,2049
1369,3802,2050,2050
1370,3805,2051,2051
1371,3808,2052,2052
1372,3811,2053,2053
1373,3813,2055,2055
1374,3816,2057,2057
1375,3819,2060,2060
1376,3822,2063,2063
1377,3825,2067,2067
1378,3827,2072,2072
1379,3830,2078,2078
1380,3833,2084,2084
1381,3836,2091,2091
1382,3838,2099,2099
1383,3841,2107,2107
1384,3844,2115,2115
1385,3847,2123,2123
1386,3850,2131,2131
1387,3852,2139,2139
1388,3855,2145,2145
1389,3858,2151,2151
1390,3861,2155,2155
1391,3863,2157,2157
1392,3866,2158,2158
1393,3869,2157,2157
1394,3872,2155,2155
1395,3875,2151,2151
1396,3877,2145,2145
1397,3880,2139,2139
1398,3883,2131,2131
1399,3886,2123,2123
1400,3888,2115,2115
1401,3891,2107,2107
1402,3894,2099,2099
1403,3897,2091,2091
1404,3900,2084,2084
1405,3902,2078,2078
1406,3905,2072,2072
1407,3908,2067,2067
1408,3911,2063,2063
1409,3913,2060,2060
1410,3916,2057,2057
1411,3919,2055,2055
1412,3922,2053,2053
1413,3925,2052,2052
1414,3927,2051,2051
1415,3930,2050,2050
1416,3933,2049,2049
1417,3936,2048,2048
1418,3938,2048,2048
1419,3941,2048,2048
1420,3944,2048,2048
1421,3947,2048,2048
1422,3950,2048,2048
1423,3952,2048,2048
1424,3955,2048,2048
1425,3958,2048,2048
1426,3961,2048,2048
1427,3963,2048,2048
1428,3966,2048,2048
1429,3969,2048,2048
1430,3972,2048,2048
1431,3975,2048,2048
1432,3977,2048,2048
1433,3980,2048,2048
1434,3983,2048,2048
1435,3986,2048,2048
1436,3988,2048,2048
1437,3991,2048,2048
1438,3994,2048,2048
1439,3997,2048,2048
1440,4000,2048,2048
1441,4002,2048,2048
1442,4005,2048,2048
1443,4008,2048,2048
1444,4011,2048,2048
1445,4013,2048,2048
1446,4016,2048,2048
1447,4019,2048,2048
1448,4022,2048,2048
1449,4025,2048,2048
1450,4027,2048,2048
1451,4030,2048,2048
1452,4033,2048,2048
1453,4036,2048,2048
1454,4038,2048,2048
1455,4041,2048,2048
1456,4044,2048,2048
1457,4047,2048,2048
1458,4050,2048,2048
1459,4052,2048,2048
1460,4055,2048,2048
1461,4058,2049,2049
1462,4061,2049,2049
1463,4063,2050,2050
1464,4066,2052,2052
1465,4069,2054,2054
1466,4072,2057,2057
1467,4075,2061,2061
1468,4077,2066,2066
1469,4080,2072,2072
1470,4083,2078,2078
1471,4086,2085,2085
1472,4088,2092,2092
1473,4091,2099,2099
1474,4094,2104,2104
1475,4097,2107,2107
1476,4100,2108,2108
1477,4102,2107,2107
1478,4105,2104,2104
1479,4108,2099,2099
1480,4111,2092,2092
1481,4113,2085,2085
1482,4116,2078,2078
1483,4119,2072,2072
1484,4122,2066,2066
1485,4125,2061,2061
1486,4127,2057,2057
1487,4130,2054,2054
1488,4133,2052,2052
1489,4136,2050,2050
1490,4138,2049,2049
1491,4141,2049,2049
1492,4144,2048,2048
1493,4147,2048,2048
1494,4150,2048,2048
1495,4152,2048,2048
1496,4155,2048,2048
1497,4158,2048,2048
1498,4161,2048,2048
1499,4163,2048,2048
1500,4166,2048,2048
1501,4169,2048,2048
1502,4172,2048,2048
1503,4175,2048,2048
1504,4177,2048,2048
1505,4180,2048,2048
1506,4183,2048,2048
1507,4186,2048,2048
1508,4188,2048,2048
1509,4191,2048,2048
1510,4194,2048,2048
1511,4197,2048,2048
1512,4200,2048,2048
1513,4202,2048,2048
1514,4205,2048,2048
1515,4208,2048,2048
1516,4211,2048,2048
1517,4213,2048,2048
1518,4216,2048,2048
1519,4219,2048,2048
1520,4222,2048,2048
1521,4225,2048,2048
1522,4227,2048,2048
1523,4230,2048,2048
1524,4233,2048,2048
1525,4236,2048,2048
1526,4238,2048,2048
1527,4241,2048,2048
1528,4244,2048,2048
1529,4247,2048,2048
1530,4250,2048,2048
1531,4252,2048,2048
1532,4255,2048,2048
1533,4258,2048,2048
1534,4261,2048,2048
1535,4263,2048,2048
1536,4266,2048,2048
1537,4269,2048,2048
1538,4272,2048,2048
1539,4275,2048,2048
1540,4277,2048,2048
1541,4280,2048,2048
1542,4283,2048,2048
1543,4286,2048,2048
1544,4288,2048,2048
1545,4291,2048,2048
1546,4294,2048,2048
1547,4297,2048,2048
1548,4300,2048,2048
1549,4302,2048,2048
1550,4305,2048,2048
1551,4308,2048,2048
1552,4311,2048,2048
1553,4313,2048,2048
1554,4316,2048,2048
1555,4319,2048,2048
1556,4322,2048,2048
1557,4325,2048,2048
1558,4327,2048,2048
1559,4330,2048,2048
1560,4333,2048,2048
1561,4336,2048,2048
1562,4338,2048,2048
1563,4341,2048,2048
1564,4344,2048,2048
1565,4347,2048,2048
1566,4350,2048,2048
1567,4352,2048,2048
1568,4355,2048,2048
1569,4358,2048,2048
1570,4361,2048,2048
1571,4363,2048,2048
1572,4366,2048,2048
1573,4369,2048,2048
1574,4372,2048,2048
1575,4375,2048,2048
1576,4377,2048,2048
1577,4380,2048,2048
1578,4383,2048,2048
1579,4386,2048,2048
1580,4388,2048,2048
1581,4391,2048,2048
1582,4394,2048,2048
1583,4397,2048,2048
1584,4400,2048,2048
1585,4402,2048,2048
1586,4405,2048,2048
1587,4408,2048,2048
1588,4411,2048,2048
1589,4413,2048,2048
1590,4416,2046,2046
1591,4419,2039,2039
1592,4422,2030,2030
1593,4425,2020,2020
1594,4427,2030,2030
1595,4430,2077,2077
1596,4433,2160,2160
1597,4436,2270,2270
1598,4438,2396,2396
1599,4441,2520,2520
1600,4444,2613,2613
1601,4447,2648,2648
1602,4450,2613,2613
1603,4452,2519,2519
1604,4455,2394,2394
1605,4458,2266,2266
1606,4461,2152,2152
1607,4463,2056,2056
1608,4466,1979,1979
1609,4469,1925,1925
1610,4472,1898,1898
1611,4475,1912,1912
1612,4477,1947,1947
1613,4480,1986,1986
1614,4483,2017,2017
1615,4486,2035,2035
1616,4488,2044,2044
1617,4491,2048,2048
1618,4494,2048,2048
1619,4497,2048,2048
1620,4500,2048,2048
1621,4502,2048,2048
1622,4505,2048,2048
1623,4508,2048,2048
1624,4511,2048,2048
1625,4513,2048,2048
1626,4516,2048,2048
1627,4519,2048,2048
1628,4522,2048,2048
1629,4525,2048,2048
1630,4527,2048,2048
1631,4530,2048,2048
1632,4533,2048,2048
1633,4536,2048,2048
1634,4538,2048,2048
1635,4541,2048,2048
1636,4544,2048,2048
1637,4547,2048,2048
1638,4550,2048,2048
1639,4552,2048,2048
1640,4555,2048,2048
1641,4558,2048,2048
1642,4561,2048,2048
1643,4563,2048,2048
1644,4566,2048,2048
1645,4569,2048,2048
1646,4572,2048,2048
1647,4575,2048,2048
1648,4577,2048,2048
1649,4580,2048,2048
1650,4583,2048,2048
1651,4586,2048,2048
1652,4588,2048,2048
1653,4591,2048,2048
1654,4594,2048,2048
1655,4597,2049,2049
1656,4600,2049,2049
1657,4602,2050,2050
1658,4605,2051,2051
1659,4608,2052,2052
1660,4611,2053,2053
1661,4613,2055,2055
1662,4616,2057,2057
1663,4619,2060,2060
1664,4622,2063,2063
1665,4625,2067,2067
1666,4627,2072,2072
1667,4630,2078,2078
1668,4633,2084,2084
1669,4636,2091,2091
1670,4638,2099,2099
1671,4641,2107,2107
1672,4644,2115,2115
1673,4647,2123,2123
1674,4650,2131,2131
1675,4652,2139,2139
1676,4655,2145,2145
1677,4658,2151,2151
1678,4661,2155,2155
1679,4663,2157,2157
1680,4666,2158,2158
1681,4669,2157,2157
1682,4672,2155,2155
1683,4675,2151,2151
1684,4677,2145,2145
1685,4680,2139,2139
1686,4683,2131,2131
1687,4686,2123,2123
1688,4688,2115,2115
1689,4691,2107,2107
1690,4694,2099,2099
1691,4697,2091,2091
1692,4700,2084,2084
1693,4702,2078,2078
1694,4705,2072,2072
1695,4708,2067,2067
1696,4711,2063,2063
1697,4713,2060,2060
1698,4716,2057,2057
1699,4719,2055,2055
1700,4722,2053,2053
1701,4725,2052,2052
1702,4727,2051,2051
1703,4730,2050,2050
1704,4733,2049,2049
1705,4736,2048,2048
1706,4738,2048,2048
1707,4741,2048,2048
1708,4744,2048,2048
1709,4747,2048,2048
1710,4750,2048,2048
1711,4752,2048,2048
1712,4755,2048,2048
1713,4758,2048,2048
1714,4761,2048,2048
1715,4763,2048,2048
1716,4766,2048,2048
1717,4769,2048,2048
1718,4772,2048,2048
1719,4775,2048,2048
1720,4777,2048,2048
1721,4780,2048,2048
1722,4783,2048,2048
1723,4786,2048,2048
1724,4788,2048,2048
1725,4791,2048,2048
1726,4794,2048,2048
1727,4797,2048,2048
1728,4800,2048,2048
1729,4802,2048,2048
1730,4805,2048,2048
1731,4808,2048,2048
1732,4811,2048,2048
1733,4813,2048,2048
1734,4816,2048,2048
1735,4819,2048,2048
1736,4822,2048,2048
1737,4825,2048,2048
1738,4827,2048,2048
1739,4830,2048,2048
1740,4833,2048,2048
1741,4836,2048,2048
1742,4838,2048,2048
1743,4841,2048,2048
1744,4844,2048,2048
1745,4847,2048,2048
1746,4850,2048,2048
1747,4852,2048,2048
1748,4855,2048,2048
1749,4858,2049,2049
1750,4861,2049,2049
1751,4863,2050,2050
1752,4866,2052,2052
1753,4869,2054,2054
1754,4872,2057,2057
1755,4875,2061,2061
1756,4877,2066,2066
1757,4880,2072,2072
1758,4883,2078,2078
1759,4886,2085,2085
1760,4888,2092,2092
1761,4891,2099,2099
1762,4894,2104,2104
1763,4897,2107,2107
1764,4900,2108,2108
1765,4902,2107,2107
1766,4905,2104,2104
1767,4908,2099,2099
1768,4911,2092,2092
1769,4913,2085,2085
1770,4916,2078,2078
1771,4919,2072,2072
1772,4922,2066,2066
1773,4925,2061,2061
1774,4927,2057,2057
1775,4930,2054,2054
1776,4933,2052,2052
1777,4936,2050,2050
1778,4938,2049,2049
1779,4941,2049,2049
1780,4944,2048,2048
1781,4947,2048,2048
1782,4950,2048,2048
1783,4952,2048,2048
1784,4955,2048,2048
1785,4958,2048,2048
1786,4961,2048,2048
1787,4963,2048,2048
1788,4966,2048,2048
1789,4969,2048,2048
1790,4972,2048,2048
1791,4975,2048,2048
1792,4977,2048,2048
1793,4980,2048,2048
1794,4983,2048,2048
1795,4986,2048,2048
1796,4988,2048,2048
1797,4991,2048,2048
1798,4994,2048,2048
1799,4997,2048,2048
