Index,Time_ms,Raw,Filtered
0,0,2048,2048
1,2,2048,2048
2,5,2048,2048
3,8,2048,2048
4,11,2048,2048
5,13,2048,2048
6,16,2048,2048
7,19,2048,2048
8,22,2048,2048
9,25,2048,2048
10,27,2048,2048
11,30,2048,2048
12,33,2048,2048
13,36,2048,2048
14,38,2048,2048
15,41,2048,2048
16,44,2048,2048
17,47,2048,2048
18,50,2048,2048
19,52,2048,2048
20,55,2048,2048
21,58,2048,2048
22,61,2048,2048
23,63,2048,2048
24,66,2048,2048
25,69,2048,2048
26,72,2048,2048
27,75,2048,2048
28,77,2048,2048
29,80,2048,2048
30,83,2048,2048
31,86,2048,2048
32,88,2048,2048
33,91,2049,2049
34,94,2049,2049
35,97,2050,2050
36,100,2051,2051
37,102,2053,2053
38,105,2056,2056
39,108,2059,2059
40,111,2063,2063
41,113,2068,2068
42,116,2073,2073
43,119,2079,2079
44,122,2085,2085
45,125,2090,2090
46,127,2094,2094
47,130,2097,2097
48,133,2098,2098
49,136,2097,2097
50,138,2094,2094
51,141,2090,2090
52,144,2085,2085
53,147,2079,2079
54,150,2073,2073
55,152,2068,2068
56,155,2063,2063
57,158,2059,2059
58,161,2056,2056
59,163,2053,2053
60,166,2051,2051
61,169,2050,2050
62,172,2049,2049
63,175,2049,2049
64,177,2048,2048
65,180,2048,2048
66,183,2048,2048
67,186,2048,2048
68,188,2048,2048
69,191,2048,2048
70,194,2048,2048
71,197,2048,2048
72,200,2048,2048
73,202,2048,2048
74,205,2048,2048
75,208,2048,2048
76,211,2048,2048
77,213,2048,2048
78,216,2048,2048
79,219,2048,2048
80,222,2048,2048
81,225,2048,2048
82,227,2048,2048
83,230,2048,2048
84,233,2048,2048
85,236,2048,2048
86,238,2048,2048
87,241,2048,2048
88,244,2048,2048
89,247,2048,2048
90,250,2048,2048
91,252,2048,2048
92,255,2048,2048
93,258,2048,2048
94,261,2048,2048
95,263,2048,2048
96,266,2048,2048
97,269,2048,2048
98,272,2048,2048
99,275,2051,2051
100,277,2057,2057
101,280,2069,2069
102,283,2095,2095
103,286,2138,2138
104,288,2202,2202
105,291,2282,2282
106,294,2363,2363
107,297,2425,2425
108,300,2448,2448
109,302,2425,2425
110,305,2363,2363
111,308,2272,2272
112,311,2176,2176
113,313,2074,2074
114,316,1955,1955
115,319,1800,1800
116,322,1595,1595
117,325,1347,1347
118,327,1103,1103
119,330,918,918
120,333,848,848
121,336,918,918
122,338,1103,1103
123,341,1347,1347
124,344,1587,1587
125,347,1779,1779
126,350,1908,1908
127,352,1984,1984
128,355,2022,2022
129,358,2048,2048
130,361,2048,2048
131,363,2048,2048
132,366,2048,2048
133,369,2048,2048
134,372,2048,2048
135,375,2048,2048
136,377,2048,2048
137,380,2048,2048
138,383,2048,2048
139,386,2048,2048
140,388,2048,2048
141,391,2048,2048
142,394,2048,2048
143,397,2048,2048
144,400,2048,2048
145,402,2048,2048
146,405,2048,2048
147,408,2048,2048
148,411,2048,2048
149,413,2048,2048
150,416,2048,2048
151,419,2048,2048
152,422,2048,2048
153,425,2048,2048
154,427,2048,2048
155,430,2049,2049
156,433,2049,2049
157,436,2050,2050
158,438,2051,2051
159,441,2052,2052
160,444,2053,2053
161,447,2055,2055
162,450,2057,2057
163,452,2060,2060
164,455,2063,2063
165,458,2067,2067
166,461,2072,2072
167,463,2078,2078
168,466,2084,2084
169,469,2091,2091
170,472,2099,2099
171,475,2107,2107
172,477,2115,2115
173,480,2123,2123
174,483,2131,2131
175,486,2139,2139
176,488,2145,2145
177,491,2151,2151
178,494,2155,2155
179,497,2157,2157
180,500,2158,2158
181,502,2157,2157
182,505,2155,2155
183,508,2151,2151
184,511,2145,2145
185,513,2139,2139
186,516,2131,2131
187,519,2123,2123
188,522,2115,2115
189,525,2107,2107
190,527,2099,2099
191,530,2091,2091
192,533,2084,2084
193,536,2078,2078
194,538,2072,2072
195,541,2067,2067
196,544,2063,2063
197,547,2060,2060
198,550,2057,2057
199,552,2055,2055
200,555,2053,2053
201,558,2052,2052
202,561,2051,2051
203,563,2050,2050
204,566,2049,2049
205,569,2048,2048
206,572,2048,2048
207,575,2048,2048
208,577,2048,2048
209,580,2048,2048
210,583,2048,2048
211,586,2048,2048
212,588,2048,2048
213,591,2048,2048
214,594,2048,2048
215,597,2048,2048
216,600,2048,2048
217,602,2048,2048
218,605,2048,2048
219,608,2048,2048
220,611,2048,2048
221,613,2048,2048
222,616,2048,2048
223,619,2048,2048
224,622,2048,2048
225,625,2048,2048
226,627,2048,2048
227,630,2048,2048
228,633,2048,2048
229,636,2048,2048
230,638,2048,2048
231,641,2048,2048
232,644,2048,2048
233,647,2048,2048
234,650,2048,2048
235,652,2048,2048
236,655,2048,2048
237,658,2048,2048
238,661,2048,2048
239,663,2048,2048
240,666,2048,2048
241,669,2048,2048
242,672,2048,2048
243,675,2048,2048
244,677,2048,2048
245,680,2048,2048
246,683,2048,2048
247,686,2048,2048
248,688,2048,2048
249,691,2048,2048
250,694,2048,2048
251,697,2048,2048
252,700,2048,2048
253,702,2048,2048
254,705,2048,2048
255,708,2048,2048
256,711,2048,2048
257,713,2048,2048
258,716,2048,2048
259,719,2048,2048
260,722,2048,2048
261,725,2048,2048
262,727,2048,2048
263,730,2048,2048
264,733,2048,2048
265,736,2048,2048
266,738,2048,2048
267,741,2048,2048
268,744,2048,2048
269,747,2048,2048
270,750,2048,2048
271,752,2048,2048
272,755,2048,2048
273,758,2048,2048
274,761,2048,2048
275,763,2048,2048
276,766,2048,2048
277,769,2048,2048
278,772,2048,2048
279,775,2048,2048
280,777,2048,2048
281,780,2048,2048
282,783,2048,2048
283,786,2048,2048
284,788,2048,2048
285,791,2048,2048
286,794,2048,2048
287,797,2048,2048
288,800,2048,2048
289,802,2048,2048
290,805,2048,2048
291,808,2048,2048
292,811,2048,2048
293,813,2048,2048
294,816,2048,2048
295,819,2048,2048
296,822,2048,2048
297,825,2048,2048
298,827,2048,2048
299,830,2048,2048
300,833,2048,2048
301,836,2048,2048
302,838,2048,2048
303,841,2048,2048
304,844,2048,2048
305,847,2048,2048
306,850,2048,2048
307,852,2048,2048
308,855,2048,2048
309,858,2048,2048
310,861,2048,2048
311,863,2048,2048
312,866,2048,2048
313,869,2048,2048
314,872,2048,2048
315,875,2048,2048
316,877,2048,2048
317,880,2048,2048
318,883,2048,2048
319,886,2048,2048
320,888,2048,2048
321,891,2048,2048
322,894,2048,2048
323,897,2048,2048
324,900,2048,2048
325,902,2048,2048
326,905,2048,2048
327,908,2048,2048
328,911,2048,2048
329,913,2048,2048
330,916,2048,2048
331,919,2048,2048
332,922,2048,2048
333,925,2049,2049
334,927,2049,2049
335,930,2050,2050
336,933,2051,2051
337,936,2053,2053
338,938,2056,2056
339,941,2059,2059
340,944,2063,2063
341,947,2068,2068
342,950,2073,2073
343,952,2079,2079
344,955,2085,2085
345,958,2090,2090
346,961,2094,2094
347,963,2097,2097
348,966,2098,2098
349,969,2097,2097
350,972,2094,2094
351,975,2090,2090
352,977,2085,2085
353,980,2079,2079
354,983,2073,2073
355,986,2068,2068
356,988,2063,2063
357,991,2059,2059
358,994,2056,2056
359,997,2053,2053
360,1000,2051,2051
361,1002,2050,2050
362,1005,2049,2049
363,1008,2049,2049
364,1011,2048,2048
365,1013,2048,2048
366,1016,2048,2048
367,1019,2048,2048
368,1022,2048,2048
369,1025,2048,2048
370,1027,2048,2048
371,1030,2048,2048
372,1033,2048,2048
373,1036,2048,2048
374,1038,2048,2048
375,1041,2048,2048
376,1044,2048,2048
377,1047,2048,2048
378,1050,2048,2048
379,1052,2048,2048
380,1055,2048,2048
381,1058,2048,2048
382,1061,2048,2048
383,1063,2048,2048
384,1066,2048,2048
385,1069,2048,2048
386,1072,2048,2048
387,1075,2048,2048
388,1077,2048,2048
389,1080,2048,2048
390,1083,2048,2048
391,1086,2048,2048
392,1088,2048,2048
393,1091,2048,2048
394,1094,2048,2048
395,1097,2048,2048
396,1100,2048,2048
397,1102,2048,2048
398,1105,2048,2048
399,1108,2051,2051
400,1111,2057,2057
401,1113,2069,2069
402,1116,2095,2095
403,1119,2138,2138
404,1122,2202,2202
405,1125,2282,2282
406,1127,2363,2363
407,1130,2425,2425
408,1133,2448,2448
409,1136,2425,2425
410,1138,2363,2363
411,1141,2272,2272
412,1144,2176,2176
413,1147,2074,2074
414,1150,1955,1955
415,1152,1800,1800
416,1155,1595,1595
417,1158,1347,1347
418,1161,1103,1103
419,1163,918,918
420,1166,848,848
421,1169,918,918
422,1172,1103,1103
423,1175,1347,1347
424,1177,1587,1587
425,1180,1779,1779
426,1183,1908,1908
427,1186,1984,1984
428,1188,2022,2022
429,1191,2048,2048
430,1194,2048,2048
431,1197,2048,2048
432,1200,2048,2048
433,1202,2048,2048
434,1205,2048,2048
435,1208,2048,2048
436,1211,2048,2048
437,1213,2048,2048
438,1216,2048,2048
439,1219,2048,2048
440,1222,2048,2048
441,1225,2048,2048
442,1227,2048,2048
443,1230,2048,2048
444,1233,2048,2048
445,1236,2048,2048
446,1238,2048,2048
447,1241,2048,2048
448,1244,2048,2048
449,1247,2048,2048
450,1250,2048,2048
451,1252,2048,2048
452,1255,2048,2048
453,1258,2048,2048
454,1261,2048,2048
455,1263,2049,2049
456,1266,2049,2049
457,1269,2050,2050
458,1272,2051,2051
459,1275,2052,2052
460,1277,2053,2053
461,1280,2055,2055
462,1283,2057,2057
463,1286,2060,2060
464,1288,2063,2063
465,1291,2067,2067
466,1294,2072,2072
467,1297,2078,2078
468,1300,2084,2084
469,1302,2091,2091
470,1305,2099,2099
471,1308,2107,2107
472,1311,2115,2115
473,1313,2123,2123
474,1316,2131,2131
475,1319,2139,2139
476,1322,2145,2145
477,1325,2151,2151
478,1327,2155,2155
479,1330,2157,2157
480,1333,2158,2158
481,1336,2157,2157
482,1338,2155,2155
483,1341,2151,2151
484,1344,2145,2145
485,1347,2139,2139
486,1350,2131,2131
487,1352,2123,2123
488,1355,2115,2115
489,1358,2107,2107
490,1361,2099,2099
491,1363,2091,2091
492,1366,2084,2084
493,1369,2078,2078
494,1372,2072,2072
495,1375,2067,2067
496,1377,2063,2063
497,1380,2060,2060
498,1383,2057,2057
499,1386,2055,2055
500,1388,2053,2053
501,1391,2052,2052
502,1394,2051,2051
503,1397,2050,2050
504,1400,2049,2049
505,1402,2048,2048
506,1405,2048,2048
507,1408,2048,2048
508,1411,2048,2048
509,1413,2048,2048
510,1416,2048,2048
511,1419,2048,2048
512,1422,2048,2048
513,1425,2048,2048
514,1427,2048,2048
515,1430,2048,2048
516,1433,2048,2048
517,1436,2048,2048
518,1438,2048,2048
519,1441,2048,2048
520,1444,2048,2048
521,1447,2048,2048
522,1450,2048,2048
523,1452,2048,2048
524,1455,2048,2048
525,1458,2048,2048
526,1461,2048,2048
527,1463,2048,2048
528,1466,2048,2048
529,1469,2048,2048
530,1472,2048,2048
531,1475,2048,2048
532,1477,2048,2048
533,1480,2048,2048
534,1483,2048,2048
535,1486,2048,2048
536,1488,2048,2048
537,1491,2048,2048
538,1494,2048,2048
539,1497,2048,2048
540,1500,2048,2048
541,1502,2048,2048
542,1505,2048,2048
543,1508,2048,2048
544,1511,2048,2048
545,1513,2048,2048
546,1516,2048,2048
547,1519,2048,2048
548,1522,2048,2048
549,1525,2048,2048
550,1527,2048,2048
551,1530,2048,2048
552,1533,2048,2048
553,1536,2048,2048
554,1538,2048,2048
555,1541,2048,2048
556,1544,2048,2048
557,1547,2048,2048
558,1550,2048,2048
559,1552,2048,2048
560,1555,2048,2048
561,1558,2048,2048
562,1561,2048,2048
563,1563,2048,2048
564,1566,2048,2048
565,1569,2048,2048
566,1572,2048,2048
567,1575,2048,2048
568,1577,2048,2048
569,1580,2048,2048
570,1583,2048,2048
571,1586,2048,2048
572,1588,2048,2048
573,1591,2048,2048
574,1594,2048,2048
575,1597,2048,2048
576,1600,2048,2048
577,1602,2048,2048
578,1605,2048,2048
579,1608,2048,2048
580,1611,2048,2048
581,1613,2048,2048
582,1616,2048,2048
583,1619,2048,2048
584,1622,2048,2048
585,1625,2048,2048
586,1627,2048,2048
587,1630,2048,2048
588,1633,2048,2048
589,1636,2048,2048
590,1638,2048,2048
591,1641,2048,2048
592,1644,2048,2048
593,1647,2048,2048
594,1650,2048,2048
595,1652,2048,2048
596,1655,2048,2048
597,1658,2048,2048
598,1661,2048,2048
599,1663,2048,2048
600,1666,2048,2048
601,1669,2048,2048
602,1672,2048,2048
603,1675,2048,2048
604,1677,2048,2048
605,1680,2048,2048
606,1683,2048,2048
607,1686,2048,2048
608,1688,2048,2048
609,1691,2048,2048
610,1694,2048,2048
611,1697,2048,2048
612,1700,2048,2048
613,1702,2048,2048
614,1705,2048,2048
615,1708,2048,2048
616,1711,2048,2048
617,1713,2048,2048
618,1716,2048,2048
619,1719,2048,2048
620,1722,2048,2048
621,1725,2048,2048
622,1727,2048,2048
623,1730,2048,2048
624,1733,2048,2048
625,1736,2048,2048
626,1738,2048,2048
627,1741,2048,2048
628,1744,2048,2048
629,1747,2048,2048
630,1750,2048,2048
631,1752,2048,2048
632,1755,2048,2048
633,1758,2049,2049
634,1761,2049,2049
635,1763,2050,2050
636,1766,2051,2051
637,1769,2053,2053
638,1772,2056,2056
639,1775,2059,2059
640,1777,2063,2063
641,1780,2068,2068
642,1783,2073,2073
643,1786,2079,2079
644,1788,2085,2085
645,1791,2090,2090
646,1794,2094,2094
647,1797,2097,2097
648,1800,2098,2098
649,1802,2097,2097
650,1805,2094,2094
651,1808,2090,2090
652,1811,2085,2085
653,1813,2079,2079
654,1816,2073,2073
655,1819,2068,2068
656,1822,2063,2063
657,1825,2059,2059
658,1827,2056,2056
659,1830,2053,2053
660,1833,2051,2051
661,1836,2050,2050
662,1838,2049,2049
663,1841,2049,2049
664,1844,2048,2048
665,1847,2048,2048
666,1850,2048,2048
667,1852,2048,2048
668,1855,2048,2048
669,1858,2048,2048
670,1861,2048,2048
671,1863,2048,2048
672,1866,2048,2048
673,1869,2048,2048
674,1872,2048,2048
675,1875,2048,2048
676,1877,2048,2048
677,1880,2048,2048
678,1883,2048,2048
679,1886,2048,2048
680,1888,2048,2048
681,1891,2048,2048
682,1894,2048,2048
683,1897,2048,2048
684,1900,2048,2048
685,1902,2048,2048
686,1905,2048,2048
687,1908,2048,2048
688,1911,2048,2048
689,1913,2048,2048
690,1916,2048,2048
691,1919,2048,2048
692,1922,2048,2048
693,1925,2048,2048
694,1927,2048,2048
695,1930,2048,2048
696,1933,2048,2048
697,1936,2048,2048
698,1938,2048,2048
699,1941,2051,2051
700,1944,2057,2057
701,1947,2069,2069
702,1950,2095,2095
703,1952,2138,2138
704,1955,2202,2202
705,1958,2282,2282
706,1961,2363,2363
707,1963,2425,2425
708,1966,2448,2448
709,1969,2425,2425
710,1972,2363,2363
711,1975,2272,2272
712,1977,2176,2176
713,1980,2074,2074
714,1983,1955,1955
715,1986,1800,1800
716,1988,1595,1595
717,1991,1347,1347
718,1994,1103,1103
719,1997,918,918
720,2000,848,848
721,2002,918,918
722,2005,1103,1103
723,2008,1347,1347
724,2011,1587,1587
725,2013,1779,1779
726,2016,1908,1908
727,2019,1984,1984
728,2022,2022,2022
729,2025,2048,2048
730,2027,2048,2048
731,2030,2048,2048
732,2033,2048,2048
733,2036,2048,2048
734,2038,2048,2048
735,2041,2048,2048
736,2044,2048,2048
737,2047,2048,2048
738,2050,2048,2048
739,2052,2048,2048
740,2055,2048,2048
741,2058,2048,2048
742,2061,2048,2048
743,2063,2048,2048
744,2066,2048,2048
745,2069,2048,2048
746,2072,2048,2048
747,2075,2048,2048
748,2077,2048,2048
749,2080,2048,2048
750,2083,2048,2048
751,2086,2048,2048
752,2088,2048,2048
753,2091,2048,2048
754,2094,2048,2048
755,2097,2049,2049
756,2100,2049,2049
757,2102,2050,2050
758,2105,2051,2051
759,2108,2052,2052
760,2111,2053,2053
761,2113,2055,2055
762,2116,2057,2057
763,2119,2060,2060
764,2122,2063,2063
765,2125,2067,2067
766,2127,2072,2072
767,2130,2078,2078
768,2133,2084,2084
769,2136,2091,2091
770,2138,2099,2099
771,2141,2107,2107
772,2144,2115,2115
773,2147,2123,2123
774,2150,2131,2131
775,2152,2139,2139
776,2155,2145,2145
777,2158,2151,2151
778,2161,2155,2155
779,2163,2157,2157
780,2166,2158,2158
781,2169,2157,2157
782,2172,2155,2155
783,2175,2151,2151
784,2177,2145,2145
785,2180,2139,2139
786,2183,2131,2131
787,2186,2123,2123
788,2188,2115,2115
789,2191,2107,2107
790,2194,2099,2099
791,2197,2091,2091
792,2200,2084,2084
793,2202,2078,2078
794,2205,2072,2072
795,2208,2067,2067
796,2211,2063,2063
797,2213,2060,2060
798,2216,2057,2057
799,2219,2055,2055
800,2222,2053,2053
801,2225,2052,2052
802,2227,2051,2051
803,2230,2050,2050
804,2233,2049,2049
805,2236,2048,2048
806,2238,2048,2048
807,2241,2048,2048
808,2244,2048,2048
809,2247,2048,2048
810,2250,2048,2048
811,2252,2048,2048
812,2255,2048,2048
813,2258,2048,2048
814,2261,2048,2048
815,2263,2048,2048
816,2266,2048,2048
817,2269,2048,2048
818,2272,2048,2048
819,2275,2048,2048
820,2277,2048,2048
821,2280,2048,2048
822,2283,2048,2048
823,2286,2048,2048
824,2288,2048,2048
825,2291,2048,2048
826,2294,2048,2048
827,2297,2048,2048
828,2300,2048,2048
829,2302,2048,2048
830,2305,2048,2048
831,2308,2048,2048
832,2311,2048,2048
833,2313,2048,2048
834,2316,2048,2048
835,2319,2048,2048
836,2322,2048,2048
837,2325,2048,2048
838,2327,2048,2048
839,2330,2048,2048
840,2333,2048,2048
841,2336,2048,2048
842,2338,2048,2048
843,2341,2048,2048
844,2344,2048,2048
845,2347,2048,2048
846,2350,2048,2048
847,2352,2048,2048
848,2355,2048,2048
849,2358,2048,2048
850,2361,2048,2048
851,2363,2048,2048
852,2366,2048,2048
853,2369,2048,2048
854,2372,2048,2048
855,2375,2048,2048
856,2377,2048,2048
857,2380,2048,2048
858,2383,2048,2048
859,2386,2048,2048
860,2388,2048,2048
861,2391,2048,2048
862,2394,2048,2048
863,2397,2048,2048
864,2400,2048,2048
865,2402,2048,2048
866,2405,2048,2048
867,2408,2048,2048
868,2411,2048,2048
869,2413,2048,2048
870,2416,2048,2048
871,2419,2048,2048
872,2422,2048,2048
873,2425,2048,2048
874,2427,2048,2048
875,2430,2048,2048
876,2433,2048,2048
877,2436,2048,2048
878,2438,2048,2048
879,2441,2048,2048
880,2444,2048,2048
881,2447,2048,2048
882,2450,2048,2048
883,2452,2048,2048
884,2455,2048,2048
885,2458,2048,2048
886,2461,2048,2048
887,2463,2048,2048
888,2466,2048,2048
889,2469,2048,2048
890,2472,2048,2048
891,2475,2048,2048
892,2477,2048,2048
893,2480,2048,2048
894,2483,2048,2048
895,2486,2048,2048
896,2488,2048,2048
897,2491,2048,2048
898,2494,2048,2048
899,2497,2048,2048
900,2500,2048,2048
901,2502,2048,2048
902,2505,2048,2048
903,2508,2048,2048
904,2511,2048,2048
905,2513,2048,2048
906,2516,2048,2048
907,2519,2048,2048
908,2522,2048,2048
909,2525,2048,2048
910,2527,2048,2048
911,2530,2048,2048
912,2533,2048,2048
913,2536,2048,2048
914,2538,2048,2048
915,2541,2048,2048
916,2544,2048,2048
917,2547,2048,2048
918,2550,2048,2048
919,2552,2048,2048
920,2555,2048,2048
921,2558,2048,2048
922,2561,2048,2048
923,2563,2048,2048
924,2566,2048,2048
925,2569,2048,2048
926,2572,2048,2048
927,2575,2048,2048
928,2577,2048,2048
929,2580,2048,2048
930,2583,2048,2048
931,2586,2048,2048
932,2588,2048,2048
933,2591,2049,2049
934,2594,2049,2049
935,2597,2050,2050
936,2600,2051,2051
937,2602,2053,2053
938,2605,2056,2056
939,2608,2059,2059
940,2611,2063,2063
941,2613,2068,2068
942,2616,2073,2073
943,2619,2079,2079
944,2622,2085,2085
945,2625,2090,2090
946,2627,2094,2094
947,2630,2097,2097
948,2633,2098,2098
949,2636,2097,2097
950,2638,2094,2094
951,2641,2090,2090
952,2644,2085,2085
953,2647,2079,2079
954,2650,2073,2073
955,2652,2068,2068
956,2655,2063,2063
957,2658,2059,2059
958,2661,2056,2056
959,2663,2053,2053
960,2666,2051,2051
961,2669,2050,2050
962,2672,2049,2049
963,2675,2049,2049
964,2677,2048,2048
965,2680,2048,2048
966,2683,2048,2048
967,2686,2048,2048
968,2688,2048,2048
969,2691,2048,2048
970,2694,2048,2048
971,2697,2048,2048
972,2700,2048,2048
973,2702,2048,2048
974,2705,2048,2048
975,2708,2048,2048
976,2711,2048,2048
977,2713,2048,2048
978,2716,2048,2048
979,2719,2048,2048
980,2722,2048,2048
981,2725,2048,2048
982,2727,2048,2048
983,2730,2048,2048
984,2733,2048,2048
985,2736,2048,2048
986,2738,2048,2048
987,2741,2048,2048
988,2744,2048,2048
989,2747,2048,2048
990,2750,2048,2048
991,2752,2048,2048
992,2755,2048,2048
993,2758,2048,2048
994,2761,2048,2048
995,2763,2048,2048
996,2766,2048,2048
997,2769,2048,2048
998,2772,2048,2048
999,2775,2051,2051
1000,2777,2057,2057
1001,2780,2069,2069
1002,2783,2095,2095
1003,2786,2138,2138
1004,2788,2202,2202
1005,2791,2282,2282
1006,2794,2363,2363
1007,2797,2425,2425
1008,2800,2448,2448
1009,2802,2425,2425
1010,2805,2363,2363
1011,2808,2272,2272
1012,2811,2176,2176
1013,2813,2074,2074
1014,2816,1955,1955
1015,2819,1800,1800
1016,2822,1595,1595
1017,2825,1347,1347
1018,2827,1103,1103
1019,2830,918,918
1020,2833,848,848
1021,2836,918,918
1022,2838,1103,1103
1023,2841,1347,1347
1024,2844,1587,1587
1025,2847,1779,1779
1026,2850,1908,1908
1027,2852,1984,1984
1028,2855,2022,2022
1029,2858,2048,2048
1030,2861,2048,2048
1031,2863,2048,2048
1032,2866,2048,2048
1033,2869,2048,2048
1034,2872,2048,2048
1035,2875,2048,2048
1036,2877,2048,2048
1037,2880,2048,2048
1038,2883,2048,2048
1039,2886,2048,2048
1040,2888,2048,2048
1041,2891,2048,2048
1042,2894,2048,2048
1043,2897,2048,2048
1044,2900,2048,2048
1045,2902,2048,2048
1046,2905,2048,2048
1047,2908,2048,2048
1048,2911,2048,2048
1049,2913,2048,2048
1050,2916,2048,2048
1051,2919,2048,2048
1052,2922,2048,2048
1053,2925,2048,2048
1054,2927,2048,2048
1055,2930,2049,2049
1056,2933,2049,2049
1057,2936,2050,2050
1058,2938,2051,2051
1059,2941,2052,2052
1060,2944,2053,2053
1061,2947,2055,2055
1062,2950,2057,2057
1063,2952,2060,2060
1064,2955,2063,2063
1065,2958,2067,2067
1066,2961,2072,2072
1067,2963,2078,2078
1068,2966,2084,2084
1069,2969,2091,2091
1070,2972,2099,2099
1071,2975,2107,2107
1072,2977,2115,2115
1073,2980,2123,2123
1074,2983,2131,2131
1075,2986,2139,2139
1076,2988,2145,2145
1077,2991,2151,2151
1078,2994,2155,2155
1079,2997,2157,2157
1080,3000,2158,2158
1081,3002,2157,2157
1082,3005,2155,2155
1083,3008,2151,2151
1084,3011,2145,2145
1085,3013,2139,2139
1086,3016,2131,2131
1087,3019,2123,2123
1088,3022,2115,2115
1089,3025,2107,2107
1090,3027,2099,2099
1091,3030,2091,2091
1092,3033,2084,2084
1093,3036,2078,2078
1094,3038,2072,2072
1095,3041,2067,2067
1096,3044,2063,2063
1097,3047,2060,2060
1098,3050,2057,2057
1099,3052,2055,2055
1100,3055,2053,2053
1101,3058,2052,2052
1102,3061,2051,2051
1103,3063,2050,2050
1104,3066,2049,2049
1105,3069,2048,2048
1106,3072,2048,2048
1107,3075,2048,2048
1108,3077,2048,2048
1109,3080,2048,2048
1110,3083,2048,2048
1111,3086,2048,2048
1112,3088,2048,2048
1113,3091,2048,2048
1114,3094,2048,2048
1115,3097,2048,2048
1116,3100,2048,2048
1117,3102,2048,2048
1118,3105,2048,2048
1119,3108,2048,2048
1120,3111,2048,2048
1121,3113,2048,2048
1122,3116,2048,2048
1123,3119,2048,2048
1124,3122,2048,2048
1125,3125,2048,2048
1126,3127,2048,2048
1127,3130,2048,2048
1128,3133,2048,2048
1129,3136,2048,2048
1130,3138,2048,2048
1131,3141,2048,2048
1132,3144,2048,2048
1133,3147,2048,2048
1134,3150,2048,2048
1135,3152,2048,2048
1136,3155,2048,2048
1137,3158,2048,2048
1138,3161,2048,2048
1139,3163,2048,2048
1140,3166,2048,2048
1141,3169,2048,2048
1142,3172,2048,2048
1143,3175,2048,2048
1144,3177,2048,2048
1145,3180,2048,2048
1146,3183,2048,2048
1147,3186,2048,2048
1148,3188,2048,2048
1149,3191,2048,2048
1150,3194,2048,2048
1151,3197,2048,2048
1152,3200,2048,2048
1153,3202,2048,2048
1154,3205,2048,2048
1155,3208,2048,2048
1156,3211,2048,2048
1157,3213,2048,2048
1158,3216,2048,2048
1159,3219,2048,2048
1160,3222,2048,2048
1161,3225,2048,2048
1162,3227,2048,2048
1163,3230,2048,2048
1164,3233,2048,2048
1165,3236,2048,2048
1166,3238,2048,2048
1167,3241,2048,2048
1168,3244,2048,2048
1169,3247,2048,2048
1170,3250,2048,2048
1171,3252,2048,2048
1172,3255,2048,2048
1173,3258,2048,2048
1174,3261,2048,2048
1175,3263,2048,2048
1176,3266,2048,2048
1177,3269,2048,2048
1178,3272,2048,2048
1179,3275,2048,2048
1180,3277,2048,2048
1181,3280,2048,2048
1182,3283,2048,2048
1183,3286,2048,2048
1184,3288,2048,2048
1185,3291,2048,2048
1186,3294,2048,2048
1187,3297,2048,2048
1188,3300,2048,2048
1189,3302,2048,2048
1190,3305,2048,2048
1191,3308,2048,2048
1192,3311,2048,2048
1193,3313,2048,2048
1194,3316,2048,2048
1195,3319,2048,2048
1196,3322,2048,2048
1197,3325,2048,2048
1198,3327,2048,2048
1199,3330,2048,2048
1200,3333,2048,2048
1201,3336,2048,2048
1202,3338,2048,2048
1203,3341,2048,2048
1204,3344,2048,2048
1205,3347,2048,2048
1206,3350,2048,2048
1207,3352,2048,2048
1208,3355,2048,2048
1209,3358,2048,2048
1210,3361,2048,2048
1211,3363,2048,2048
1212,3366,2048,2048
1213,3369,2048,2048
1214,3372,2048,2048
1215,3375,2048,2048
1216,3377,2048,2048
1217,3380,2048,2048
1218,3383,2048,2048
1219,3386,2048,2048
1220,3388,2048,2048
1221,3391,2048,2048
1222,3394,2048,2048
1223,3397,2048,2048
1224,3400,2048,2048
1225,3402,2048,2048
1226,3405,2048,2048
1227,3408,2048,2048
1228,3411,2048,2048
1229,3413,2048,2048
1230,3416,2048,2048
1231,3419,2048,2048
1232,3422,2048,2048
1233,3425,2049,2049
1234,3427,2049,2049
1235,3430,2050,2050
1236,3433,2051,2051
1237,3436,2053,2053
1238,3438,2056,2056
1239,3441,2059,2059
1240,3444,2063,2063
1241,3447,2068,2068
1242,3450,2073,2073
1243,3452,2079,2079
1244,3455,2085,2085
1245,3458,2090,2090
1246,3461,2094,2094
1247,3463,2097,2097
1248,3466,2098,2098
1249,3469,2097,2097
1250,3472,2094,2094
1251,3475,2090,2090
1252,3477,2085,2085
1253,3480,2079,2079
1254,3483,2073,2073
1255,3486,2068,2068
1256,3488,2063,2063
1257,3491,2059,2059
1258,3494,2056,2056
1259,3497,2053,2053
1260,3500,2051,2051
1261,3502,2050,2050
1262,3505,2049,2049
1263,3508,2049,2049
1264,3511,2048,2048
1265,3513,2048,2048
1266,3516,2048,2048
1267,3519,2048,2048
1268,3522,2048,2048
1269,3525,2048,2048
1270,3527,2048,2048
1271,3530,2048,2048
1272,3533,2048,2048
1273,3536,2048,2048
1274,3538,2048,2048
1275,3541,2048,2048
1276,3544,2048,2048
1277,3547,2048,2048
1278,3550,2048,2048
1279,3552,2048,2048
1280,3555,2048,2048
1281,3558,2048,2048
1282,3561,2048,2048
1283,3563,2048,2048
1284,3566,2048,2048
1285,3569,2048,2048
1286,3572,2048,2048
1287,3575,2048,2048
1288,3577,2048,2048
1289,3580,2048,2048
1290,3583,2048,2048
1291,3586,2048,2048
1292,3588,2048,2048
1293,3591,2048,2048
1294,3594,2048,2048
1295,3597,2048,2048
1296,3600,2048,2048
1297,3602,2048,2048
1298,3605,2048,2048
1299,3608,2051,2051
1300,3611,2057,2057
1301,3613,2069,2069
1302,3616,2095,2095
1303,3619,2138,2138
1304,3622,2202,2202
1305,3625,2282,2282
1306,3627,2363,2363
1307,3630,2425,2425
1308,3633,2448,2448
1309,3636,2425,2425
1310,3638,2363,2363
1311,3641,2272,2272
1312,3644,2176,2176
1313,3647,2074,2074
1314,3650,1955,1955
1315,3652,1800,1800
1316,3655,1595,1595
1317,3658,1347,1347
1318,3661,1103,1103
1319,3663,918,918
1320,3666,848,848
1321,3669,918,918
1322,3672,1103,1103
1323,3675,1347,1347
1324,3677,1587,1587
1325,3680,1779,1779
1326,3683,1908,1908
1327,3686,1984,1984
1328,3688,2022,2022
1329,3691,2048,2048
1330,3694,2048,2048
1331,3697,2048,2048
1332,3700,2048,2048
1333,3702,2048,2048
1334,3705,2048,2048
1335,3708,2048,2048
1336,3711,2048,2048
1337,3713,2048,2048
1338,3716,2048,2048
1339,3719,2048,2048
1340,3722,2048,2048
1341,3725,2048,2048
1342,3727,2048,2048
1343,3730,2048,2048
1344,3733,2048,2048
1345,3736,2048,2048
1346,3738,2048,2048
1347,3741,2048,2048
1348,3744,2048,2048
1349,3747,2048,2048
1350,3750,2048,2048
1351,3752,2048,2048
1352,3755,2048,2048
1353,3758,2048,2048
1354,3761,2048,2048
1355,3763,2049,2049
1356,3766,2049,2049
1357,3769,2050,2050
1358,3772,2051,2051
1359,3775,2052,2052
1360,3777,2053,2053
1361,3780,2055,2055
1362,3783,2057,2057
1363,3786,2060,2060
1364,3788,2063,2063
1365,3791,2067,2067
1366,3794,2072,2072
1367,3797,2078,2078
1368,3800,2084,2084
1369,3802,2091,2091
1370,3805,2099,2099
1371,3808,2107,2107
1372,3811,2115,2115
1373,3813,2123,2123
1374,3816,2131,2131
1375,3819,2139,2139
1376,3822,2145,2145
1377,3825,2151,2151
1378,3827,2155,2155
1379,3830,2157,2157
1380,3833,2158,2158
1381,3836,2157,2157
1382,3838,2155,2155
1383,3841,2151,2151
1384,3844,2145,2145
1385,3847,2139,2139
1386,3850,2131,2131
1387,3852,2123,2123
1388,3855,2115,2115
1389,3858,2107,2107
1390,3861,2099,2099
1391,3863,2091,2091
1392,3866,2084,2084
1393,3869,2078,2078
1394,3872,2072,2072
1395,3875,2067,2067
1396,3877,2063,2063
1397,3880,2060,2060
1398,3883,2057,2057
1399,3886,2055,2055
1400,3888,2053,2053
1401,3891,2052,2052
1402,3894,2051,2051
1403,3897,2050,2050
1404,3900,2049,2049
1405,3902,2048,2048
1406,3905,2048,2048
1407,3908,2048,2048
1408,3911,2048,2048
1409,3913,2048,2048
1410,3916,2048,2048
1411,3919,2048,2048
1412,3922,2048,2048
1413,3925,2048,2048
1414,3927,2048,2048
1415,3930,2048,2048
1416,3933,2048,2048
1417,3936,2048,2048
1418,3938,2048,2048
1419,3941,2048,2048
1420,3944,2048,2048
1421,3947,2048,2048
1422,3950,2048,2048
1423,3952,2048,2048
1424,3955,2048,2048
1425,3958,2048,2048
1426,3961,2048,2048
1427,3963,2048,2048
1428,3966,2048,2048
1429,3969,2048,2048
1430,3972,2048,2048
1431,3975,2048,2048
1432,3977,2048,2048
1433,3980,2048,2048
1434,3983,2048,2048
1435,3986,2048,2048
1436,3988,2048,2048
1437,3991,2048,2048
1438,3994,2048,2048
1439,3997,2048,2048
1440,4000,2048,2048
1441,4002,2048,2048
1442,4005,2048,2048
1443,4008,2048,2048
1444,4011,2048,2048
1445,4013,2048,2048
1446,4016,2048,2048
1447,4019,2048,2048
1448,4022,2048,2048
1449,4025,2048,2048
1450,4027,2048,2048
1451,4030,2048,2048
1452,4033,2048,2048
1453,4036,2048,2048
1454,4038,2048,2048
1455,4041,2048,2048
1456,4044,2048,2048
1457,4047,2048,2048
1458,4050,2048,2048
1459,4052,2048,2048
1460,4055,2048,2048
1461,4058,2048,2048
1462,4061,2048,2048
1463,4063,2048,2048
1464,4066,2048,2048
1465,4069,2048,2048
1466,4072,2048,2048
1467,4075,2048,2048
1468,4077,2048,2048
1469,4080,2048,2048
1470,4083,2048,2048
1471,4086,2048,2048
1472,4088,2048,2048
1473,4091,2048,2048
1474,4094,2048,2048
1475,4097,2048,2048
1476,4100,2048,2048
1477,4102,2048,2048
1478,4105,2048,2048
1479,4108,2048,2048
1480,4111,2048,2048
1481,4113,2048,2048
1482,4116,2048,2048
1483,4119,2048,2048
1484,4122,2048,2048
1485,4125,2048,2048
1486,4127,2048,2048
1487,4130,2048,2048
1488,4133,2048,2048
1489,4136,2048,2048
1490,4138,2048,2048
1491,4141,2048,2048
1492,4144,2048,2048
1493,4147,2048,2048
1494,4150,2048,2048
1495,4152,2048,2048
1496,4155,2048,2048
1497,4158,2048,2048
1498,4161,2048,2048
1499,4163,2048,2048
1500,4166,2048,2048
1501,4169,2048,2048
1502,4172,2048,2048
1503,4175,2048,2048
1504,4177,2048,2048
1505,4180,2048,2048
1506,4183,2048,2048
1507,4186,2048,2048
1508,4188,2048,2048
1509,4191,2048,2048
1510,4194,2048,2048
1511,4197,2048,2048
1512,4200,2048,2048
1513,4202,2048,2048
1514,4205,2048,2048
1515,4208,2048,2048
1516,4211,2048,2048
1517,4213,2048,2048
1518,4216,2048,2048
1519,4219,2048,2048
1520,4222,2048,2048
1521,4225,2048,2048
1522,4227,2048,2048
1523,4230,2048,2048
1524,4233,2048,2048
1525,4236,2048,2048
1526,4238,2048,2048
1527,4241,2048,2048
1528,4244,2048,2048
1529,4247,2048,2048
1530,4250,2048,2048
1531,4252,2048,2048
1532,4255,2048,2048
1533,4258,2049,2049
1534,4261,2049,2049
1535,4263,2050,2050
1536,4266,2051,2051
1537,4269,2053,2053
1538,4272,2056,2056
1539,4275,2059,2059
1540,4277,2063,2063
1541,4280,2068,2068
1542,4283,2073,2073
1543,4286,2079,2079
1544,4288,2085,2085
1545,4291,2090,2090
1546,4294,2094,2094
1547,4297,2097,2097
1548,4300,2098,2098
1549,4302,2097,2097
1550,4305,2094,2094
1551,4308,2090,2090
1552,4311,2085,2085
1553,4313,2079,2079
1554,4316,2073,2073
1555,4319,2068,2068
1556,4322,2063,2063
1557,4325,2059,2059
1558,4327,2056,2056
1559,4330,2053,2053
1560,4333,2051,2051
1561,4336,2050,2050
1562,4338,2049,2049
1563,4341,2049,2049
1564,4344,2048,2048
1565,4347,2048,2048
1566,4350,2048,2048
1567,4352,2048,2048
1568,4355,2048,2048
1569,4358,2048,2048
1570,4361,2048,2048
1571,4363,2048,2048
1572,4366,2048,2048
1573,4369,2048,2048
1574,4372,2048,2048
1575,4375,2048,2048
1576,4377,2048,2048
1577,4380,2048,2048
1578,4383,2048,2048
1579,4386,2048,2048
1580,4388,2048,2048
1581,4391,2048,2048
1582,4394,2048,2048
1583,4397,2048,2048
1584,4400,2048,2048
1585,4402,2048,2048
1586,4405,2048,2048
1587,4408,2048,2048
1588,4411,2048,2048
1589,4413,2048,2048
1590,4416,2048,2048
1591,4419,2048,2048
1592,4422,2048,2048
1593,4425,2048,2048
1594,4427,2048,2048
1595,4430,2048,2048
1596,4433,2048,2048
1597,4436,2048,2048
1598,4438,2048,2048
1599,4441,2051,2051
1600,4444,2057,2057
1601,4447,2069,2069
1602,4450,2095,2095
1603,4452,2138,2138
1604,4455,2202,2202
1605,4458,2282,2282
1606,4461,2363,2363
1607,4463,2425,2425
1608,4466,2448,2448
1609,4469,2425,2425
1610,4472,2363,2363
1611,4475,2272,2272
1612,4477,2176,2176
1613,4480,2074,2074
1614,4483,1955,1955
1615,4486,1800,1800
1616,4488,1595,1595
1617,4491,1347,1347
1618,4494,1103,1103
1619,4497,918,918
1620,4500,848,848
1621,4502,918,918
1622,4505,1103,1103
1623,4508,1347,1347
1624,4511,1587,1587
1625,4513,1779,1779
1626,4516,1908,1908
1627,4519,1984,1984
1628,4522,2022,2022
1629,4525,2048,2048
1630,4527,2048,2048
1631,4530,2048,2048
1632,4533,2048,2048
1633,4536,2048,2048
1634,4538,2048,2048
1635,4541,2048,2048
1636,4544,2048,2048
1637,4547,2048,2048
1638,4550,2048,2048
1639,4552,2048,2048
1640,4555,2048,2048
1641,4558,2048,2048
1642,4561,2048,2048
1643,4563,2048,2048
1644,4566,2048,2048
1645,4569,2048,2048
1646,4572,2048,2048
1647,4575,2048,2048
1648,4577,2048,2048
1649,4580,2048,2048
1650,4583,2048,2048
1651,4586,2048,2048
1652,4588,2048,2048
1653,4591,2048,2048
1654,4594,2048,2048
1655,4597,2049,2049
1656,4600,2049,2049
1657,4602,2050,2050
1658,4605,2051,2051
1659,4608,2052,2052
1660,4611,2053,2053
1661,4613,2055,2055
1662,4616,2057,2057
1663,4619,2060,2060
1664,4622,2063,2063
1665,4625,2067,2067
1666,4627,2072,2072
1667,4630,2078,2078
1668,4633,2084,2084
1669,4636,2091,2091
1670,4638,2099,2099
1671,4641,2107,2107
1672,4644,2115,2115
1673,4647,2123,2123
1674,4650,2131,2131
1675,4652,2139,2139
1676,4655,2145,2145
1677,4658,2151,2151
1678,4661,2155,2155
1679,4663,2157,2157
1680,4666,2158,2158
1681,4669,2157,2157
1682,4672,2155,2155
1683,4675,2151,2151
1684,4677,2145,2145
1685,4680,2139,2139
1686,4683,2131,2131
1687,4686,2123,2123
1688,4688,2115,2115
1689,4691,2107,2107
1690,4694,2099,2099
1691,4697,2091,2091
1692,4700,2084,2084
1693,4702,2078,2078
1694,4705,2072,2072
1695,4708,2067,2067
1696,4711,2063,2063
1697,4713,2060,2060
1698,4716,2057,2057
1699,4719,2055,2055
1700,4722,2053,2053
1701,4725,2052,2052
1702,4727,2051,2051
1703,4730,2050,2050
1704,4733,2049,2049
1705,4736,2048,2048
1706,4738,2048,2048
1707,4741,2048,2048
1708,4744,2048,2048
1709,4747,2048,2048
1710,4750,2048,2048
1711,4752,2048,2048
1712,4755,2048,2048
1713,4758,2048,2048
1714,4761,2048,2048
1715,4763,2048,2048
1716,4766,2048,2048
1717,4769,2048,2048
1718,4772,2048,2048
1719,4775,2048,2048
1720,4777,2048,2048
1721,4780,2048,2048
1722,4783,2048,2048
1723,4786,2048,2048
1724,4788,2048,2048
1725,4791,2048,2048
1726,4794,2048,2048
1727,4797,2048,2048
1728,4800,2048,2048
1729,4802,2048,2048
1730,4805,2048,2048
1731,4808,2048,2048
1732,4811,2048,2048
1733,4813,2048,2048
1734,4816,2048,2048
1735,4819,2048,2048
1736,4822,2048,2048
1737,4825,2048,2048
1738,4827,2048,2048
1739,4830,2048,2048
1740,4833,2048,2048
1741,4836,2048,2048
1742,4838,2048,2048
1743,4841,2048,2048
1744,4844,2048,2048
1745,4847,2048,2048
1746,4850,2048,2048
1747,4852,2048,2048
1748,4855,2048,2048
1749,4858,2048,2048
1750,4861,2048,2048
1751,4863,2048,2048
1752,4866,2048,2048
1753,4869,2048,2048
1754,4872,2048,2048
1755,4875,2048,2048
1756,4877,2048,2048
1757,4880,2048,2048
1758,4883,2048,2048
1759,4886,2048,2048
1760,4888,2048,2048
1761,4891,2048,2048
1762,4894,2048,2048
1763,4897,2048,2048
1764,4900,2048,2048
1765,4902,2048,2048
1766,4905,2048,2048
1767,4908,2048,2048
1768,4911,2048,2048
1769,4913,2048,2048
1770,4916,2048,2048
1771,4919,2048,2048
1772,4922,2048,2048
1773,4925,2048,2048
1774,4927,2048,2048
1775,4930,2048,2048
1776,4933,2048,2048
1777,4936,2048,2048
1778,4938,2048,2048
1779,4941,2048,2048
1780,4944,2048,2048
1781,4947,2048,2048
1782,4950,2048,2048
1783,4952,2048,2048
1784,4955,2048,2048
1785,4958,2048,2048
1786,4961,2048,2048
1787,4963,2048,2048
1788,4966,2048,2048
1789,4969,2048,2048
1790,4972,2048,2048
1791,4975,2048,2048
1792,4977,2048,2048
1793,4980,2048,2048
1794,4983,2048,2048
1795,4986,2048,2048
1796,4988,2048,2048
1797,4991,2048,2048
1798,4994,2048,2048
1799,4997,2048,2048
