Index,Time_ms,Raw,Filtered
0,0,2048,2048
1,2,2048,2048
2,5,2048,2048
3,8,2048,2048
4,11,2048,2048
5,13,2048,2048
6,16,2048,2048
7,19,2048,2048
8,22,2048,2048
9,25,2048,2048
10,27,2048,2048
11,30,2048,2048
12,33,2048,2048
13,36,2048,2048
14,38,2048,2048
15,41,2048,2048
16,44,2048,2048
17,47,2048,2048
18,50,2048,2048
19,52,2048,2048
20,55,2048,2048
21,58,2048,2048
22,61,2048,2048
23,63,2048,2048
24,66,2048,2048
25,69,2048,2048
26,72,2048,2048
27,75,2048,2048
28,77,2048,2048
29,80,2048,2048
30,83,2048,2048
31,86,2048,2048
32,88,2048,2048
33,91,2048,2048
34,94,2048,2048
35,97,2048,2048
36,100,2048,2048
37,102,2048,2048
38,105,2048,2048
39,108,2048,2048
40,111,2048,2048
41,113,2048,2048
42,116,2048,2048
43,119,2048,2048
44,122,2046,2046
45,125,2039,2039
46,127,2032,2032
47,130,2026,2026
48,133,2046,2046
49,136,2112,2112
50,138,2227,2227
51,141,2385,2385
52,144,2571,2571
53,147,2757,2757
54,150,2896,2896
55,152,2948,2948
56,155,2896,2896
57,158,2755,2755
58,161,2569,2569
59,163,2381,2381
60,166,2219,2219
61,169,2091,2091
62,172,1995,1995
63,175,1932,1932
64,177,1898,1898
65,180,1912,1912
66,183,1947,1947
67,186,1986,1986
68,188,2017,2017
69,191,2035,2035
70,194,2044,2044
71,197,2048,2048
72,200,2048,2048
73,202,2048,2048
74,205,2048,2048
75,208,2048,2048
76,211,2048,2048
77,213,2048,2048
78,216,2048,2048
79,219,2048,2048
80,222,2048,2048
81,225,2048,2048
82,227,2048,2048
83,230,2048,2048
84,233,2048,2048
85,236,2048,2048
86,238,2048,2048
87,241,2049,2049
88,244,2049,2049
89,247,2050,2050
90,250,2051,2051
91,252,2052,2052
92,255,2053,2053
93,258,2055,2055
94,261,2057,2057
95,263,2060,2060
96,266,2063,2063
97,269,2067,2067
98,272,2072,2072
99,275,2078,2078
100,277,2084,2084
101,280,2091,2091
102,283,2099,2099
103,286,2107,2107
104,288,2115,2115
105,291,2123,2123
106,294,2131,2131
107,297,2139,2139
108,300,2145,2145
109,302,2151,2151
110,305,2155,2155
111,308,2157,2157
112,311,2158,2158
113,313,2157,2157
114,316,2155,2155
115,319,2151,2151
116,322,2145,2145
117,325,2139,2139
118,327,2131,2131
119,330,2123,2123
120,333,2115,2115
121,336,2107,2107
122,338,2099,2099
123,341,2091,2091
124,344,2084,2084
125,347,2078,2078
126,350,2072,2072
127,352,2048,2048
128,355,2048,2048
129,358,2048,2048
130,361,2048,2048
131,363,2048,2048
132,366,2048,2048
133,369,2048,2048
134,372,2048,2048
135,375,2048,2048
136,377,2048,2048
137,380,2048,2048
138,383,2048,2048
139,386,2048,2048
140,388,2048,2048
141,391,2048,2048
142,394,2048,2048
143,397,2048,2048
144,400,2048,2048
145,402,2048,2048
146,405,2048,2048
147,408,2048,2048
148,411,2048,2048
149,413,2048,2048
150,416,2048,2048
151,419,2048,2048
152,422,2048,2048
153,425,2048,2048
154,427,2048,2048
155,430,2048,2048
156,433,2048,2048
157,436,2048,2048
158,438,2048,2048
159,441,2048,2048
160,444,2048,2048
161,447,2048,2048
162,450,2048,2048
163,452,2048,2048
164,455,2048,2048
165,458,2048,2048
166,461,2048,2048
167,463,2048,2048
168,466,2048,2048
169,469,2048,2048
170,472,2048,2048
171,475,2046,2046
172,477,2039,2039
173,480,2032,2032
174,483,2026,2026
175,486,2046,2046
176,488,2112,2112
177,491,2227,2227
178,494,2385,2385
179,497,2571,2571
180,500,2757,2757
181,502,2896,2896
182,505,2948,2948
183,508,2896,2896
184,511,2755,2755
185,513,2569,2569
186,516,2381,2381
187,519,2219,2219
188,522,2091,2091
189,525,1995,1995
190,527,1932,1932
191,530,1898,1898
192,533,1912,1912
193,536,1947,1947
194,538,1986,1986
195,541,2017,2017
196,544,2035,2035
197,547,2044,2044
198,550,2048,2048
199,552,2048,2048
200,555,2048,2048
201,558,2048,2048
202,561,2048,2048
203,563,2048,2048
204,566,2048,2048
205,569,2048,2048
206,572,2048,2048
207,575,2048,2048
208,577,2048,2048
209,580,2048,2048
210,583,2048,2048
211,586,2048,2048
212,588,2048,2048
213,591,2048,2048
214,594,2049,2049
215,597,2049,2049
216,600,2050,2050
217,602,2051,2051
218,605,2052,2052
219,608,2053,2053
220,611,2055,2055
221,613,2057,2057
222,616,2060,2060
223,619,2063,2063
224,622,2067,2067
225,625,2072,2072
226,627,2078,2078
227,630,2084,2084
228,633,2091,2091
229,636,2099,2099
230,638,2107,2107
231,641,2115,2115
232,644,2123,2123
233,647,2131,2131
234,650,2139,2139
235,652,2145,2145
236,655,2151,2151
237,658,2155,2155
238,661,2157,2157
239,663,2158,2158
240,666,2157,2157
241,669,2155,2155
242,672,2151,2151
243,675,2145,2145
244,677,2139,2139
245,680,2131,2131
246,683,2123,2123
247,686,2115,2115
248,688,2107,2107
249,691,2099,2099
250,694,2091,2091
251,697,2084,2084
252,700,2078,2078
253,702,2072,2072
254,705,2048,2048
255,708,2048,2048
256,711,2048,2048
257,713,2048,2048
258,716,2048,2048
259,719,2048,2048
260,722,2048,2048
261,725,2048,2048
262,727,2048,2048
263,730,2048,2048
264,733,2048,2048
265,736,2048,2048
266,738,2048,2048
267,741,2048,2048
268,744,2048,2048
269,747,2048,2048
270,750,2048,2048
271,752,2048,2048
272,755,2048,2048
273,758,2048,2048
274,761,2048,2048
275,763,2048,2048
276,766,2048,2048
277,769,2048,2048
278,772,2048,2048
279,775,2048,2048
280,777,2048,2048
281,780,2048,2048
282,783,2048,2048
283,786,2048,2048
284,788,2048,2048
285,791,2048,2048
286,794,2048,2048
287,797,2048,2048
288,800,2048,2048
289,802,2048,2048
290,805,2048,2048
291,808,2048,2048
292,811,2048,2048
293,813,2048,2048
294,816,2048,2048
295,819,2048,2048
296,822,2048,2048
297,825,2048,2048
298,827,2046,2046
299,830,2039,2039
300,833,2032,2032
301,836,2026,2026
302,838,2046,2046
303,841,2112,2112
304,844,2227,2227
305,847,2385,2385
306,850,2571,2571
307,852,2757,2757
308,855,2896,2896
309,858,2948,2948
310,861,2896,2896
311,863,2755,2755
312,866,2569,2569
313,869,2381,2381
314,872,2219,2219
315,875,2091,2091
316,877,1995,1995
317,880,1932,1932
318,883,1898,1898
319,886,1912,1912
320,888,1947,1947
321,891,1986,1986
322,894,2017,2017
323,897,2035,2035
324,900,2044,2044
325,902,2048,2048
326,905,2048,2048
327,908,2048,2048
328,911,2048,2048
329,913,2048,2048
330,916,2048,2048
331,919,2048,2048
332,922,2048,2048
333,925,2048,2048
334,927,2048,2048
335,930,2048,2048
336,933,2048,2048
337,936,2048,2048
338,938,2048,2048
339,941,2048,2048
340,944,2048,2048
341,947,2049,2049
342,950,2049,2049
343,952,2050,2050
344,955,2051,2051
345,958,2052,2052
346,961,2053,2053
347,963,2055,2055
348,966,2057,2057
349,969,2060,2060
350,972,2063,2063
351,975,2067,2067
352,977,2072,2072
353,980,2078,2078
354,983,2084,2084
355,986,2091,2091
356,988,2099,2099
357,991,2107,2107
358,994,2115,2115
359,997,2123,2123
360,1000,2131,2131
361,1002,2139,2139
362,1005,2145,2145
363,1008,2151,2151
364,1011,2155,2155
365,1013,2157,2157
366,1016,2158,2158
367,1019,2157,2157
368,1022,2155,2155
369,1025,2151,2151
370,1027,2145,2145
371,1030,2139,2139
372,1033,2131,2131
373,1036,2123,2123
374,1038,2115,2115
375,1041,2107,2107
376,1044,2099,2099
377,1047,2091,2091
378,1050,2084,2084
379,1052,2078,2078
380,1055,2072,2072
381,1058,2048,2048
382,1061,2048,2048
383,1063,2048,2048
384,1066,2048,2048
385,1069,2048,2048
386,1072,2048,2048
387,1075,2048,2048
388,1077,2048,2048
389,1080,2048,2048
390,1083,2048,2048
391,1086,2048,2048
392,1088,2048,2048
393,1091,2048,2048
394,1094,2048,2048
395,1097,2048,2048
396,1100,2048,2048
397,1102,2048,2048
398,1105,2048,2048
399,1108,2048,2048
400,1111,2048,2048
401,1113,2048,2048
402,1116,2048,2048
403,1119,2048,2048
404,1122,2048,2048
405,1125,2048,2048
406,1127,2048,2048
407,1130,2048,2048
408,1133,2048,2048
409,1136,2048,2048
410,1138,2048,2048
411,1141,2048,2048
412,1144,2048,2048
413,1147,2048,2048
414,1150,2048,2048
415,1152,2048,2048
416,1155,2048,2048
417,1158,2048,2048
418,1161,2048,2048
419,1163,2048,2048
420,1166,2048,2048
421,1169,2048,2048
422,1172,2048,2048
423,1175,2048,2048
424,1177,2048,2048
425,1180,2046,2046
426,1183,2039,2039
427,1186,2032,2032
428,1188,2026,2026
429,1191,2046,2046
430,1194,2112,2112
431,1197,2227,2227
432,1200,2385,2385
433,1202,2571,2571
434,1205,2757,2757
435,1208,2896,2896
436,1211,2948,2948
437,1213,2896,2896
438,1216,2755,2755
439,1219,2569,2569
440,1222,2381,2381
441,1225,2219,2219
442,1227,2091,2091
443,1230,1995,1995
444,1233,1932,1932
445,1236,1898,1898
446,1238,1912,1912
447,1241,1947,1947
448,1244,1986,1986
449,1247,2017,2017
450,1250,2035,2035
451,1252,2044,2044
452,1255,2048,2048
453,1258,2048,2048
454,1261,2048,2048
455,1263,2048,2048
456,1266,2048,2048
457,1269,2048,2048
458,1272,2048,2048
459,1275,2048,2048
460,1277,2048,2048
461,1280,2048,2048
462,1283,2048,2048
463,1286,2048,2048
464,1288,2048,2048
465,1291,2048,2048
466,1294,2048,2048
467,1297,2048,2048
468,1300,2049,2049
469,1302,2049,2049
470,1305,2050,2050
471,1308,2051,2051
472,1311,2052,2052
473,1313,2053,2053
474,1316,2055,2055
475,1319,2057,2057
476,1322,2060,2060
477,1325,2063,2063
478,1327,2067,2067
479,1330,2072,2072
480,1333,2078,2078
481,1336,2084,2084
482,1338,2091,2091
483,1341,2099,2099
484,1344,2107,2107
485,1347,2115,2115
486,1350,2123,2123
487,1352,2131,2131
488,1355,2139,2139
489,1358,2145,2145
490,1361,2151,2151
491,1363,2155,2155
492,1366,2157,2157
493,1369,2158,2158
494,1372,2157,2157
495,1375,2155,2155
496,1377,2151,2151
497,1380,2145,2145
498,1383,2139,2139
499,1386,2131,2131
500,1388,2123,2123
501,1391,2115,2115
502,1394,2107,2107
503,1397,2099,2099
504,1400,2091,2091
505,1402,2084,2084
506,1405,2078,2078
507,1408,2072,2072
508,1411,2048,2048
509,1413,2048,2048
510,1416,2048,2048
511,1419,2048,2048
512,1422,2048,2048
513,1425,2048,2048
514,1427,2048,2048
515,1430,2048,2048
516,1433,2048,2048
517,1436,2048,2048
518,1438,2048,2048
519,1441,2048,2048
520,1444,2048,2048
521,1447,2048,2048
522,1450,2048,2048
523,1452,2048,2048
524,1455,2048,2048
525,1458,2048,2048
526,1461,2048,2048
527,1463,2048,2048
528,1466,2048,2048
529,1469,2048,2048
530,1472,2048,2048
531,1475,2048,2048
532,1477,2048,2048
533,1480,2048,2048
534,1483,2048,2048
535,1486,2048,2048
536,1488,2048,2048
537,1491,2048,2048
538,1494,2048,2048
539,1497,2048,2048
540,1500,2048,2048
541,1502,2048,2048
542,1505,2048,2048
543,1508,2048,2048
544,1511,2048,2048
545,1513,2048,2048
546,1516,2048,2048
547,1519,2048,2048
548,1522,2048,2048
549,1525,2048,2048
550,1527,2048,2048
551,1530,2048,2048
552,1533,2046,2046
553,1536,2039,2039
554,1538,2032,2032
555,1541,2026,2026
556,1544,2046,2046
557,1547,2112,2112
558,1550,2227,2227
559,1552,2385,2385
560,1555,2571,2571
561,1558,2757,2757
562,1561,2896,2896
563,1563,2948,2948
564,1566,2896,2896
565,1569,2755,2755
566,1572,2569,2569
567,1575,2381,2381
568,1577,2219,2219
569,1580,2091,2091
570,1583,1995,1995
571,1586,1932,1932
572,1588,1898,1898
573,1591,1912,1912
574,1594,1947,1947
575,1597,1986,1986
576,1600,2017,2017
577,1602,2035,2035
578,1605,2044,2044
579,1608,2048,2048
580,1611,2048,2048
581,1613,2048,2048
582,1616,2048,2048
583,1619,2048,2048
584,1622,2048,2048
585,1625,2048,2048
586,1627,2048,2048
587,1630,2048,2048
588,1633,2048,2048
589,1636,2048,2048
590,1638,2048,2048
591,1641,2048,2048
592,1644,2048,2048
593,1647,2048,2048
594,1650,2048,2048
595,1652,2049,2049
596,1655,2049,2049
597,1658,2050,2050
598,1661,2051,2051
599,1663,2052,2052
600,1666,2053,2053
601,1669,2055,2055
602,1672,2057,2057
603,1675,2060,2060
604,1677,2063,2063
605,1680,2067,2067
606,1683,2072,2072
607,1686,2078,2078
608,1688,2084,2084
609,1691,2091,2091
610,1694,2099,2099
611,1697,2107,2107
612,1700,2115,2115
613,1702,2123,2123
614,1705,2131,2131
615,1708,2139,2139
616,1711,2145,2145
617,1713,2151,2151
618,1716,2155,2155
619,1719,2157,2157
620,1722,2158,2158
621,1725,2157,2157
622,1727,2155,2155
623,1730,2151,2151
624,1733,2145,2145
625,1736,2139,2139
626,1738,2131,2131
627,1741,2123,2123
628,1744,2115,2115
629,1747,2107,2107
630,1750,2099,2099
631,1752,2091,2091
632,1755,2084,2084
633,1758,2078,2078
634,1761,2072,2072
635,1763,2048,2048
636,1766,2048,2048
637,1769,2048,2048
638,1772,2048,2048
639,1775,2048,2048
640,1777,2048,2048
641,1780,2048,2048
642,1783,2048,2048
643,1786,2048,2048
644,1788,2048,2048
645,1791,2048,2048
646,1794,2048,2048
647,1797,2048,2048
648,1800,2048,2048
649,1802,2048,2048
650,1805,2048,2048
651,1808,2048,2048
652,1811,2048,2048
653,1813,2048,2048
654,1816,2048,2048
655,1819,2048,2048
656,1822,2048,2048
657,1825,2048,2048
658,1827,2048,2048
659,1830,2048,2048
660,1833,2048,2048
661,1836,2048,2048
662,1838,2048,2048
663,1841,2048,2048
664,1844,2048,2048
665,1847,2048,2048
666,1850,2048,2048
667,1852,2048,2048
668,1855,2048,2048
669,1858,2048,2048
670,1861,2048,2048
671,1863,2048,2048
672,1866,2048,2048
673,1869,2048,2048
674,1872,2048,2048
675,1875,2048,2048
676,1877,2048,2048
677,1880,2048,2048
678,1883,2048,2048
679,1886,2046,2046
680,1888,2039,2039
681,1891,2032,2032
682,1894,2026,2026
683,1897,2046,2046
684,1900,2112,2112
685,1902,2227,2227
686,1905,2385,2385
687,1908,2571,2571
688,1911,2757,2757
689,1913,2896,2896
690,1916,2948,2948
691,1919,2896,2896
692,1922,2755,2755
693,1925,2569,2569
694,1927,2381,2381
695,1930,2219,2219
696,1933,2091,2091
697,1936,1995,1995
698,1938,1932,1932
699,1941,1898,1898
700,1944,1912,1912
701,1947,1947,1947
702,1950,1986,1986
703,1952,2017,2017
704,1955,2035,2035
705,1958,2044,2044
706,1961,2048,2048
707,1963,2048,2048
708,1966,2048,2048
709,1969,2048,2048
710,1972,2048,2048
711,1975,2048,2048
712,1977,2048,2048
713,1980,2048,2048
714,1983,2048,2048
715,1986,2048,2048
716,1988,2048,2048
717,1991,2048,2048
718,1994,2048,2048
719,1997,2048,2048
720,2000,2048,2048
721,2002,2048,2048
722,2005,2049,2049
723,2008,2049,2049
724,2011,2050,2050
725,2013,2051,2051
726,2016,2052,2052
727,2019,2053,2053
728,2022,2055,2055
729,2025,2057,2057
730,2027,2060,2060
731,2030,2063,2063
732,2033,2067,2067
733,2036,2072,2072
734,2038,2078,2078
735,2041,2084,2084
736,2044,2091,2091
737,2047,2099,2099
738,2050,2107,2107
739,2052,2115,2115
740,2055,2123,2123
741,2058,2131,2131
742,2061,2139,2139
743,2063,2145,2145
744,2066,2151,2151
745,2069,2155,2155
746,2072,2157,2157
747,2075,2158,2158
748,2077,2157,2157
749,2080,2155,2155
750,2083,2151,2151
751,2086,2145,2145
752,2088,2139,2139
753,2091,2131,2131
754,2094,2123,2123
755,2097,2115,2115
756,2100,2107,2107
757,2102,2099,2099
758,2105,2091,2091
759,2108,2084,2084
760,2111,2078,2078
761,2113,2072,2072
762,2116,2048,2048
763,2119,2048,2048
764,2122,2048,2048
765,2125,2048,2048
766,2127,2048,2048
767,2130,2048,2048
768,2133,2048,2048
769,2136,2048,2048
770,2138,2048,2048
771,2141,2048,2048
772,2144,2048,2048
773,2147,2048,2048
774,2150,2048,2048
775,2152,2048,2048
776,2155,2048,2048
777,2158,2048,2048
778,2161,2048,2048
779,2163,2048,2048
780,2166,2048,2048
781,2169,2048,2048
782,2172,2048,2048
783,2175,2048,2048
784,2177,2048,2048
785,2180,2048,2048
786,2183,2048,2048
787,2186,2048,2048
788,2188,2048,2048
789,2191,2048,2048
790,2194,2048,2048
791,2197,2048,2048
792,2200,2048,2048
793,2202,2048,2048
794,2205,2048,2048
795,2208,2048,2048
796,2211,2048,2048
797,2213,2048,2048
798,2216,2048,2048
799,2219,2048,2048
800,2222,2048,2048
801,2225,2048,2048
802,2227,2048,2048
803,2230,2048,2048
804,2233,2048,2048
805,2236,2048,2048
806,2238,2046,2046
807,2241,2039,2039
808,2244,2032,2032
809,2247,2026,2026
810,2250,2046,2046
811,2252,2112,2112
812,2255,2227,2227
813,2258,2385,2385
814,2261,2571,2571
815,2263,2757,2757
816,2266,2896,2896
817,2269,2948,2948
818,2272,2896,2896
819,2275,2755,2755
820,2277,2569,2569
821,2280,2381,2381
822,2283,2219,2219
823,2286,2091,2091
824,2288,1995,1995
825,2291,1932,1932
826,2294,1898,1898
827,2297,1912,1912
828,2300,1947,1947
829,2302,1986,1986
830,2305,2017,2017
831,2308,2035,2035
832,2311,2044,2044
833,2313,2048,2048
834,2316,2048,2048
835,2319,2048,2048
836,2322,2048,2048
837,2325,2048,2048
838,2327,2048,2048
839,2330,2048,2048
840,2333,2048,2048
841,2336,2048,2048
842,2338,2048,2048
843,2341,2048,2048
844,2344,2048,2048
845,2347,2048,2048
846,2350,2048,2048
847,2352,2048,2048
848,2355,2048,2048
849,2358,2049,2049
850,2361,2049,2049
851,2363,2050,2050
852,2366,2051,2051
853,2369,2052,2052
854,2372,2053,2053
855,2375,2055,2055
856,2377,2057,2057
857,2380,2060,2060
858,2383,2063,2063
859,2386,2067,2067
860,2388,2072,2072
861,2391,2078,2078
862,2394,2084,2084
863,2397,2091,2091
864,2400,2099,2099
865,2402,2107,2107
866,2405,2115,2115
867,2408,2123,2123
868,2411,2131,2131
869,2413,2139,2139
870,2416,2145,2145
871,2419,2151,2151
872,2422,2155,2155
873,2425,2157,2157
874,2427,2158,2158
875,2430,2157,2157
876,2433,2155,2155
877,2436,2151,2151
878,2438,2145,2145
879,2441,2139,2139
880,2444,2131,2131
881,2447,2123,2123
882,2450,2115,2115
883,2452,2107,2107
884,2455,2099,2099
885,2458,2091,2091
886,2461,2084,2084
887,2463,2078,2078
888,2466,2072,2072
889,2469,2048,2048
890,2472,2048,2048
891,2475,2048,2048
892,2477,2048,2048
893,2480,2048,2048
894,2483,2048,2048
895,2486,2048,2048
896,2488,2048,2048
897,2491,2048,2048
898,2494,2048,2048
899,2497,2048,2048
900,2500,2048,2048
901,2502,2048,2048
902,2505,2048,2048
903,2508,2048,2048
904,2511,2048,2048
905,2513,2048,2048
906,2516,2048,2048
907,2519,2048,2048
908,2522,2048,2048
909,2525,2048,2048
910,2527,2048,2048
911,2530,2048,2048
912,2533,2048,2048
913,2536,2048,2048
914,2538,2048,2048
915,2541,2048,2048
916,2544,2048,2048
917,2547,2048,2048
918,2550,2048,2048
919,2552,2048,2048
920,2555,2048,2048
921,2558,2048,2048
922,2561,2048,2048
923,2563,2048,2048
924,2566,2048,2048
925,2569,2048,2048
926,2572,2048,2048
927,2575,2048,2048
928,2577,2048,2048
929,2580,2048,2048
930,2583,2048,2048
931,2586,2048,2048
932,2588,2048,2048
933,2591,2046,2046
934,2594,2039,2039
935,2597,2032,2032
936,2600,2026,2026
937,2602,2046,2046
938,2605,2112,2112
939,2608,2227,2227
940,2611,2385,2385
941,2613,2571,2571
942,2616,2757,2757
943,2619,2896,2896
944,2622,2948,2948
945,2625,2896,2896
946,2627,2755,2755
947,2630,2569,2569
948,2633,2381,2381
949,2636,2219,2219
950,2638,2091,2091
951,2641,1995,1995
952,2644,1932,1932
953,2647,1898,1898
954,2650,1912,1912
955,2652,1947,1947
956,2655,1986,1986
957,2658,2017,2017
958,2661,2035,2035
959,2663,2044,2044
960,2666,2048,2048
961,2669,2048,2048
962,2672,2048,2048
963,2675,2048,2048
964,2677,2048,2048
965,2680,2048,2048
966,2683,2048,2048
967,2686,2048,2048
968,2688,2048,2048
969,2691,2048,2048
970,2694,2048,2048
971,2697,2048,2048
972,2700,2048,2048
973,2702,2048,2048
974,2705,2048,2048
975,2708,2048,2048
976,2711,2049,2049
977,2713,2049,2049
978,2716,2050,2050
979,2719,2051,2051
980,2722,2052,2052
981,2725,2053,2053
982,2727,2055,2055
983,2730,2057,2057
984,2733,2060,2060
985,2736,2063,2063
986,2738,2067,2067
987,2741,2072,2072
988,2744,2078,2078
989,2747,2084,2084
990,2750,2091,2091
991,2752,2099,2099
992,2755,2107,2107
993,2758,2115,2115
994,2761,2123,2123
995,2763,2131,2131
996,2766,2139,2139
997,2769,2145,2145
998,2772,2151,2151
999,2775,2155,2155
1000,2777,2157,2157
1001,2780,2158,2158
1002,2783,2157,2157
1003,2786,2155,2155
1004,2788,2151,2151
1005,2791,2145,2145
1006,2794,2139,2139
1007,2797,2131,2131
1008,2800,2123,2123
1009,2802,2115,2115
1010,2805,2107,2107
1011,2808,2099,2099
1012,2811,2091,2091
1013,2813,2084,2084
1014,2816,2078,2078
1015,2819,2072,2072
1016,2822,2048,2048
1017,2825,2048,2048
1018,2827,2048,2048
1019,2830,2048,2048
1020,2833,2048,2048
1021,2836,2048,2048
1022,2838,2048,2048
1023,2841,2048,2048
1024,2844,2048,2048
1025,2847,2048,2048
1026,2850,2048,2048
1027,2852,2048,2048
1028,2855,2048,2048
1029,2858,2048,2048
1030,2861,2048,2048
1031,2863,2048,2048
1032,2866,2048,2048
1033,2869,2048,2048
1034,2872,2048,2048
1035,2875,2048,2048
1036,2877,2048,2048
1037,2880,2048,2048
1038,2883,2048,2048
1039,2886,2048,2048
1040,2888,2048,2048
1041,2891,2048,2048
1042,2894,2048,2048
1043,2897,2048,2048
1044,2900,2048,2048
1045,2902,2048,2048
1046,2905,2048,2048
1047,2908,2048,2048
1048,2911,2048,2048
1049,2913,2048,2048
1050,2916,2048,2048
1051,2919,2048,2048
1052,2922,2048,2048
1053,2925,2048,2048
1054,2927,2048,2048
1055,2930,2048,2048
1056,2933,2048,2048
1057,2936,2048,2048
1058,2938,2048,2048
1059,2941,2048,2048
1060,2944,2046,2046
1061,2947,2039,2039
1062,2950,2032,2032
1063,2952,2026,2026
1064,2955,2046,2046
1065,2958,2112,2112
1066,2961,2227,2227
1067,2963,2385,2385
1068,2966,2571,2571
1069,2969,2757,2757
1070,2972,2896,2896
1071,2975,2948,2948
1072,2977,2896,2896
1073,2980,2755,2755
1074,2983,2569,2569
1075,2986,2381,2381
1076,2988,2219,2219
1077,2991,2091,2091
1078,2994,1995,1995
1079,2997,1932,1932
1080,3000,1898,1898
1081,3002,1912,1912
1082,3005,1947,1947
1083,3008,1986,1986
1084,3011,2017,2017
1085,3013,2035,2035
1086,3016,2044,2044
1087,3019,2048,2048
1088,3022,2048,2048
1089,3025,2048,2048
1090,3027,2048,2048
1091,3030,2048,2048
1092,3033,2048,2048
1093,3036,2048,2048
1094,3038,2048,2048
1095,3041,2048,2048
1096,3044,2048,2048
1097,3047,2048,2048
1098,3050,2048,2048
1099,3052,2048,2048
1100,3055,2048,2048
1101,3058,2048,2048
1102,3061,2048,2048
1103,3063,2049,2049
1104,3066,2049,2049
1105,3069,2050,2050
1106,3072,2051,2051
1107,3075,2052,2052
1108,3077,2053,2053
1109,3080,2055,2055
1110,3083,2057,2057
1111,3086,2060,2060
1112,3088,2063,2063
1113,3091,2067,2067
1114,3094,2072,2072
1115,3097,2078,2078
1116,3100,2084,2084
1117,3102,2091,2091
1118,3105,2099,2099
1119,3108,2107,2107
1120,3111,2115,2115
1121,3113,2123,2123
1122,3116,2131,2131
1123,3119,2139,2139
1124,3122,2145,2145
1125,3125,2151,2151
1126,3127,2155,2155
1127,3130,2157,2157
1128,3133,2158,2158
1129,3136,2157,2157
1130,3138,2155,2155
1131,3141,2151,2151
1132,3144,2145,2145
1133,3147,2139,2139
1134,3150,2131,2131
1135,3152,2123,2123
1136,3155,2115,2115
1137,3158,2107,2107
1138,3161,2099,2099
1139,3163,2091,2091
1140,3166,2084,2084
1141,3169,2078,2078
1142,3172,2072,2072
1143,3175,2048,2048
1144,3177,2048,2048
1145,3180,2048,2048
1146,3183,2048,2048
1147,3186,2048,2048
1148,3188,2048,2048
1149,3191,2048,2048
1150,3194,2048,2048
1151,3197,2048,2048
1152,3200,2048,2048
1153,3202,2048,2048
1154,3205,2048,2048
1155,3208,2048,2048
1156,3211,2048,2048
1157,3213,2048,2048
1158,3216,2048,2048
1159,3219,2048,2048
1160,3222,2048,2048
1161,3225,2048,2048
1162,3227,2048,2048
1163,3230,2048,2048
1164,3233,2048,2048
1165,3236,2048,2048
1166,3238,2048,2048
1167,3241,2048,2048
1168,3244,2048,2048
1169,3247,2048,2048
1170,3250,2048,2048
1171,3252,2048,2048
1172,3255,2048,2048
1173,3258,2048,2048
1174,3261,2048,2048
1175,3263,2048,2048
1176,3266,2048,2048
1177,3269,2048,2048
1178,3272,2048,2048
1179,3275,2048,2048
1180,3277,2048,2048
1181,3280,2048,2048
1182,3283,2048,2048
1183,3286,2048,2048
1184,3288,2048,2048
1185,3291,2048,2048
1186,3294,2048,2048
1187,3297,2046,2046
1188,3300,2039,2039
1189,3302,2032,2032
1190,3305,2026,2026
1191,3308,2046,2046
1192,3311,2112,2112
1193,3313,2227,2227
1194,3316,2385,2385
1195,3319,2571,2571
1196,3322,2757,2757
1197,3325,2896,2896
1198,3327,2948,2948
1199,3330,2896,2896
1200,3333,2755,2755
1201,3336,2569,2569
1202,3338,2381,2381
1203,3341,2219,2219
1204,3344,2091,2091
1205,3347,1995,1995
1206,3350,1932,1932
1207,3352,1898,1898
1208,3355,1912,1912
1209,3358,1947,1947
1210,3361,1986,1986
1211,3363,2017,2017
1212,3366,2035,2035
1213,3369,2044,2044
1214,3372,2048,2048
1215,3375,2048,2048
1216,3377,2048,2048
1217,3380,2048,2048
1218,3383,2048,2048
1219,3386,2048,2048
1220,3388,2048,2048
1221,3391,2048,2048
1222,3394,2048,2048
1223,3397,2048,2048
1224,3400,2048,2048
1225,3402,2048,2048
1226,3405,2048,2048
1227,3408,2048,2048
1228,3411,2048,2048
1229,3413,2048,2048
1230,3416,2049,2049
1231,3419,2049,2049
1232,3422,2050,2050
1233,3425,2051,2051
1234,3427,2052,2052
1235,3430,2053,2053
1236,3433,2055,2055
1237,3436,2057,2057
1238,3438,2060,2060
1239,3441,2063,2063
1240,3444,2067,2067
1241,3447,2072,2072
1242,3450,2078,2078
1243,3452,2084,2084
1244,3455,2091,2091
1245,3458,2099,2099
1246,3461,2107,2107
1247,3463,2115,2115
1248,3466,2123,2123
1249,3469,2131,2131
1250,3472,2139,2139
1251,3475,2145,2145
1252,3477,2151,2151
1253,3480,2155,2155
1254,3483,2157,2157
1255,3486,2158,2158
1256,3488,2157,2157
1257,3491,2155,2155
1258,3494,2151,2151
1259,3497,2145,2145
1260,3500,2139,2139
1261,3502,2131,2131
1262,3505,2123,2123
1263,3508,2115,2115
1264,3511,2107,2107
1265,3513,2099,2099
1266,3516,2091,2091
1267,3519,2084,2084
1268,3522,2078,2078
1269,3525,2072,2072
1270,3527,2048,2048
1271,3530,2048,2048
1272,3533,2048,2048
1273,3536,2048,2048
1274,3538,2048,2048
1275,3541,2048,2048
1276,3544,2048,2048
1277,3547,2048,2048
1278,3550,2048,2048
1279,3552,2048,2048
1280,3555,2048,2048
1281,3558,2048,2048
1282,3561,2048,2048
1283,3563,2048,2048
1284,3566,2048,2048
1285,3569,2048,2048
1286,3572,2048,2048
1287,3575,2048,2048
1288,3577,2048,2048
1289,3580,2048,2048
1290,3583,2048,2048
1291,3586,2048,2048
1292,3588,2048,2048
1293,3591,2048,2048
1294,3594,2048,2048
1295,3597,2048,2048
1296,3600,2048,2048
1297,3602,2048,2048
1298,3605,2048,2048
1299,3608,2048,2048
1300,3611,2048,2048
1301,3613,2048,2048
1302,3616,2048,2048
1303,3619,2048,2048
1304,3622,2048,2048
1305,3625,2048,2048
1306,3627,2048,2048
1307,3630,2048,2048
1308,3633,2048,2048
1309,3636,2048,2048
1310,3638,2048,2048
1311,3641,2048,2048
1312,3644,2048,2048
1313,3647,2048,2048
1314,3650,2046,2046
1315,3652,2039,2039
1316,3655,2032,2032
1317,3658,2026,2026
1318,3661,2046,2046
1319,3663,2112,2112
1320,3666,2227,2227
1321,3669,2385,2385
1322,3672,2571,2571
1323,3675,2757,2757
1324,3677,2896,2896
1325,3680,2948,2948
1326,3683,2896,2896
1327,3686,2755,2755
1328,3688,2569,2569
1329,3691,2381,2381
1330,3694,2219,2219
1331,3697,2091,2091
1332,3700,1995,1995
1333,3702,1932,1932
1334,3705,1898,1898
1335,3708,1912,1912
1336,3711,1947,1947
1337,3713,1986,1986
1338,3716,2017,2017
1339,3719,2035,2035
1340,3722,2044,2044
1341,3725,2048,2048
1342,3727,2048,2048
1343,3730,2048,2048
1344,3733,2048,2048
1345,3736,2048,2048
1346,3738,2048,2048
1347,3741,2048,2048
1348,3744,2048,2048
1349,3747,2048,2048
1350,3750,2048,2048
1351,3752,2048,2048
1352,3755,2048,2048
1353,3758,2048,2048
1354,3761,2048,2048
1355,3763,2048,2048
1356,3766,2048,2048
1357,3769,2049,2049
1358,3772,2049,2049
1359,3775,2050,2050
1360,3777,2051,2051
1361,3780,2052,2052
1362,3783,2053,2053
1363,3786,2055,2055
1364,3788,2057,2057
1365,3791,2060,2060
1366,3794,2063,2063
1367,3797,2067,2067
1368,3800,2072,2072
1369,3802,2078,2078
1370,3805,2084,2084
1371,3808,2091,2091
1372,3811,2099,2099
1373,3813,2107,2107
1374,3816,2115,2115
1375,3819,2123,2123
1376,3822,2131,2131
1377,3825,2139,2139
1378,3827,2145,2145
1379,3830,2151,2151
1380,3833,2155,2155
1381,3836,2157,2157
1382,3838,2158,2158
1383,3841,2157,2157
1384,3844,2155,2155
1385,3847,2151,2151
1386,3850,2145,2145
1387,3852,2139,2139
1388,3855,2131,2131
1389,3858,2123,2123
1390,3861,2115,2115
1391,3863,2107,2107
1392,3866,2099,2099
1393,3869,2091,2091
1394,3872,2084,2084
1395,3875,2078,2078
1396,3877,2072,2072
1397,3880,2048,2048
1398,3883,2048,2048
1399,3886,2048,2048
1400,3888,2048,2048
1401,3891,2048,2048
1402,3894,2048,2048
1403,3897,2048,2048
1404,3900,2048,2048
1405,3902,2048,2048
1406,3905,2048,2048
1407,3908,2048,2048
1408,3911,2048,2048
1409,3913,2048,2048
1410,3916,2048,2048
1411,3919,2048,2048
1412,3922,2048,2048
1413,3925,2048,2048
1414,3927,2048,2048
1415,3930,2048,2048
1416,3933,2048,2048
1417,3936,2048,2048
1418,3938,2048,2048
1419,3941,2048,2048
1420,3944,2048,2048
1421,3947,2048,2048
1422,3950,2048,2048
1423,3952,2048,2048
1424,3955,2048,2048
1425,3958,2048,2048
1426,3961,2048,2048
1427,3963,2048,2048
1428,3966,2048,2048
1429,3969,2048,2048
1430,3972,2048,2048
1431,3975,2048,2048
1432,3977,2048,2048
1433,3980,2048,2048
1434,3983,2048,2048
1435,3986,2048,2048
1436,3988,2048,2048
1437,3991,2048,2048
1438,3994,2048,2048
1439,3997,2048,2048
1440,4000,2048,2048
1441,4002,2046,2046
1442,4005,2039,2039
1443,4008,2032,2032
1444,4011,2026,2026
1445,4013,2046,2046
1446,4016,2112,2112
1447,4019,2227,2227
1448,4022,2385,2385
1449,4025,2571,2571
1450,4027,2757,2757
1451,4030,2896,2896
1452,4033,2948,2948
1453,4036,2896,2896
1454,4038,2755,2755
1455,4041,2569,2569
1456,4044,2381,2381
1457,4047,2219,2219
1458,4050,2091,2091
1459,4052,1995,1995
1460,4055,1932,1932
1461,4058,1898,1898
1462,4061,1912,1912
1463,4063,1947,1947
1464,4066,1986,1986
1465,4069,2017,2017
1466,4072,2035,2035
1467,4075,2044,2044
1468,4077,2048,2048
1469,4080,2048,2048
1470,4083,2048,2048
1471,4086,2048,2048
1472,4088,2048,2048
1473,4091,2048,2048
1474,4094,2048,2048
1475,4097,2048,2048
1476,4100,2048,2048
1477,4102,2048,2048
1478,4105,2048,2048
1479,4108,2048,2048
1480,4111,2048,2048
1481,4113,2048,2048
1482,4116,2048,2048
1483,4119,2048,2048
1484,4122,2049,2049
1485,4125,2049,2049
1486,4127,2050,2050
1487,4130,2051,2051
1488,4133,2052,2052
1489,4136,2053,2053
1490,4138,2055,2055
1491,4141,2057,2057
1492,4144,2060,2060
1493,4147,2063,2063
1494,4150,2067,2067
1495,4152,2072,2072
1496,4155,2078,2078
1497,4158,2084,2084
1498,4161,2091,2091
1499,4163,2099,2099
1500,4166,2107,2107
1501,4169,2115,2115
1502,4172,2123,2123
1503,4175,2131,2131
1504,4177,2139,2139
1505,4180,2145,2145
1506,4183,2151,2151
1507,4186,2155,2155
1508,4188,2157,2157
1509,4191,2158,2158
1510,4194,2157,2157
1511,4197,2155,2155
1512,4200,2151,2151
1513,4202,2145,2145
1514,4205,2139,2139
1515,4208,2131,2131
1516,4211,2123,2123
1517,4213,2115,2115
1518,4216,2107,2107
1519,4219,2099,2099
1520,4222,2091,2091
1521,4225,2084,2084
1522,4227,2078,2078
1523,4230,2072,2072
1524,4233,2048,2048
1525,4236,2048,2048
1526,4238,2048,2048
1527,4241,2048,2048
1528,4244,2048,2048
1529,4247,2048,2048
1530,4250,2048,2048
1531,4252,2048,2048
1532,4255,2048,2048
1533,4258,2048,2048
1534,4261,2048,2048
1535,4263,2048,2048
1536,4266,2048,2048
1537,4269,2048,2048
1538,4272,2048,2048
1539,4275,2048,2048
1540,4277,2048,2048
1541,4280,2048,2048
1542,4283,2048,2048
1543,4286,2048,2048
1544,4288,2048,2048
1545,4291,2048,2048
1546,4294,2048,2048
1547,4297,2048,2048
1548,4300,2048,2048
1549,4302,2048,2048
1550,4305,2048,2048
1551,4308,2048,2048
1552,4311,2048,2048
1553,4313,2048,2048
1554,4316,2048,2048
1555,4319,2048,2048
1556,4322,2048,2048
1557,4325,2048,2048
1558,4327,2048,2048
1559,4330,2048,2048
1560,4333,2048,2048
1561,4336,2048,2048
1562,4338,2048,2048
1563,4341,2048,2048
1564,4344,2048,2048
1565,4347,2048,2048
1566,4350,2048,2048
1567,4352,2048,2048
1568,4355,2046,2046
1569,4358,2039,2039
1570,4361,2032,2032
1571,4363,2026,2026
1572,4366,2046,2046
1573,4369,2112,2112
1574,4372,2227,2227
1575,4375,2385,2385
1576,4377,2571,2571
1577,4380,2757,2757
1578,4383,2896,2896
1579,4386,2948,2948
1580,4388,2896,2896
1581,4391,2755,2755
1582,4394,2569,2569
1583,4397,2381,2381
1584,4400,2219,2219
1585,4402,2091,2091
1586,4405,1995,1995
1587,4408,1932,1932
1588,4411,1898,1898
1589,4413,1912,1912
1590,4416,1947,1947
1591,4419,1986,1986
1592,4422,2017,2017
1593,4425,2035,2035
1594,4427,2044,2044
1595,4430,2048,2048
1596,4433,2048,2048
1597,4436,2048,2048
1598,4438,2048,2048
1599,4441,2048,2048
1600,4444,2048,2048
1601,4447,2048,2048
1602,4450,2048,2048
1603,4452,2048,2048
1604,4455,2048,2048
1605,4458,2048,2048
1606,4461,2048,2048
1607,4463,2048,2048
1608,4466,2048,2048
1609,4469,2048,2048
1610,4472,2048,2048
1611,4475,2049,2049
1612,4477,2049,2049
1613,4480,2050,2050
1614,4483,2051,2051
1615,4486,2052,2052
1616,4488,2053,2053
1617,4491,2055,2055
1618,4494,2057,2057
1619,4497,2060,2060
1620,4500,2063,2063
1621,4502,2067,2067
1622,4505,2072,2072
1623,4508,2078,2078
1624,4511,2084,2084
1625,4513,2091,2091
1626,4516,2099,2099
1627,4519,2107,2107
1628,4522,2115,2115
1629,4525,2123,2123
1630,4527,2131,2131
1631,4530,2139,2139
1632,4533,2145,2145
1633,4536,2151,2151
1634,4538,2155,2155
1635,4541,2157,2157
1636,4544,2158,2158
1637,4547,2157,2157
1638,4550,2155,2155
1639,4552,2151,2151
1640,4555,2145,2145
1641,4558,2139,2139
1642,4561,2131,2131
1643,4563,2123,2123
1644,4566,2115,2115
1645,4569,2107,2107
1646,4572,2099,2099
1647,4575,2091,2091
1648,4577,2084,2084
1649,4580,2078,2078
1650,4583,2072,2072
1651,4586,2048,2048
1652,4588,2048,2048
1653,4591,2048,2048
1654,4594,2048,2048
1655,4597,2048,2048
1656,4600,2048,2048
1657,4602,2048,2048
1658,4605,2048,2048
1659,4608,2048,2048
1660,4611,2048,2048
1661,4613,2048,2048
1662,4616,2048,2048
1663,4619,2048,2048
1664,4622,2048,2048
1665,4625,2048,2048
1666,4627,2048,2048
1667,4630,2048,2048
1668,4633,2048,2048
1669,4636,2048,2048
1670,4638,2048,2048
1671,4641,2048,2048
1672,4644,2048,2048
1673,4647,2048,2048
1674,4650,2048,2048
1675,4652,2048,2048
1676,4655,2048,2048
1677,4658,2048,2048
1678,4661,2048,2048
1679,4663,2048,2048
1680,4666,2048,2048
1681,4669,2048,2048
1682,4672,2048,2048
1683,4675,2048,2048
1684,4677,2048,2048
1685,4680,2048,2048
1686,4683,2048,2048
1687,4686,2048,2048
1688,4688,2048,2048
1689,4691,2048,2048
1690,4694,2048,2048
1691,4697,2048,2048
1692,4700,2048,2048
1693,4702,2048,2048
1694,4705,2048,2048
1695,4708,2046,2046
1696,4711,2039,2039
1697,4713,2032,2032
1698,4716,2026,2026
1699,4719,2046,2046
1700,4722,2112,2112
1701,4725,2227,2227
1702,4727,2385,2385
1703,4730,2571,2571
1704,4733,2757,2757
1705,4736,2896,2896
1706,4738,2948,2948
1707,4741,2896,2896
1708,4744,2755,2755
1709,4747,2569,2569
1710,4750,2381,2381
1711,4752,2219,2219
1712,4755,2091,2091
1713,4758,1995,1995
1714,4761,1932,1932
1715,4763,1898,1898
1716,4766,1912,1912
1717,4769,1947,1947
1718,4772,1986,1986
1719,4775,2017,2017
1720,4777,2035,2035
1721,4780,2044,2044
1722,4783,2048,2048
1723,4786,2048,2048
1724,4788,2048,2048
1725,4791,2048,2048
1726,4794,2048,2048
1727,4797,2048,2048
1728,4800,2048,2048
1729,4802,2048,2048
1730,4805,2048,2048
1731,4808,2048,2048
1732,4811,2048,2048
1733,4813,2048,2048
1734,4816,2048,2048
1735,4819,2048,2048
1736,4822,2048,2048
1737,4825,2048,2048
1738,4827,2049,2049
1739,4830,2049,2049
1740,4833,2050,2050
1741,4836,2051,2051
1742,4838,2052,2052
1743,4841,2053,2053
1744,4844,2055,2055
1745,4847,2057,2057
1746,4850,2060,2060
1747,4852,2063,2063
1748,4855,2067,2067
1749,4858,2072,2072
1750,4861,2078,2078
1751,4863,2084,2084
1752,4866,2091,2091
1753,4869,2099,2099
1754,4872,2107,2107
1755,4875,2115,2115
1756,4877,2123,2123
1757,4880,2131,2131
1758,4883,2139,2139
1759,4886,2145,2145
1760,4888,2151,2151
1761,4891,2155,2155
1762,4894,2157,2157
1763,4897,2158,2158
1764,4900,2157,2157
1765,4902,2155,2155
1766,4905,2151,2151
1767,4908,2145,2145
1768,4911,2139,2139
1769,4913,2131,2131
1770,4916,2123,2123
1771,4919,2115,2115
1772,4922,2107,2107
1773,4925,2099,2099
1774,4927,2091,2091
1775,4930,2084,2084
1776,4933,2078,2078
1777,4936,2072,2072
1778,4938,2048,2048
1779,4941,2048,2048
1780,4944,2048,2048
1781,4947,2048,2048
1782,4950,2048,2048
1783,4952,2048,2048
1784,4955,2048,2048
1785,4958,2048,2048
1786,4961,2048,2048
1787,4963,2048,2048
1788,4966,2048,2048
1789,4969,2048,2048
1790,4972,2048,2048
1791,4975,2048,2048
1792,4977,2048,2048
1793,4980,2048,2048
1794,4983,2048,2048
1795,4986,2048,2048
1796,4988,2048,2048
1797,4991,2048,2048
1798,4994,2048,2048
1799,4997,2048,2048
