Index,Time_ms,Raw,Filtered
0,0,2048,2048
1,2,2048,2048
2,5,2048,2048
3,8,2048,2048
4,11,2048,2048
5,13,2048,2048
6,16,2048,2048
7,19,2048,2048
8,22,2048,2048
9,25,2048,2048
10,27,2048,2048
11,30,2048,2048
12,33,2048,2048
13,36,2048,2048
14,38,2048,2048
15,41,2048,2048
16,44,2048,2048
17,47,2048,2048
18,50,2048,2048
19,52,2048,2048
20,55,2048,2048
21,58,2049,2049
22,61,2049,2049
23,63,2050,2050
24,66,2052,2052
25,69,2054,2054
26,72,2057,2057
27,75,2061,2061
28,77,2066,2066
29,80,2072,2072
30,83,2078,2078
31,86,2085,2085
32,88,2092,2092
33,91,2099,2099
34,94,2104,2104
35,97,2107,2107
36,100,2108,2108
37,102,2107,2107
38,105,2104,2104
39,108,2099,2099
40,111,2092,2092
41,113,2085,2085
42,116,2078,2078
43,119,2072,2072
44,122,2066,2066
45,125,2061,2061
46,127,2057,2057
47,130,2054,2054
48,133,2052,2052
49,136,2050,2050
50,138,2049,2049
51,141,2049,2049
52,144,2048,2048
53,147,2048,2048
54,150,2048,2048
55,152,2048,2048
56,155,2048,2048
57,158,2048,2048
58,161,2048,2048
59,163,2048,2048
60,166,2048,2048
61,169,2048,2048
62,172,2048,2048
63,175,2048,2048
64,177,2048,2048
65,180,2048,2048
66,183,2048,2048
67,186,2048,2048
68,188,2048,2048
69,191,2048,2048
70,194,2048,2048
71,197,2048,2048
72,200,2048,2048
73,202,2048,2048
74,205,2048,2048
75,208,2048,2048
76,211,2048,2048
77,213,2048,2048
78,216,2048,2048
79,219,2048,2048
80,222,2048,2048
81,225,2048,2048
82,227,2046,2046
83,230,2039,2039
84,233,2030,2030
85,236,2020,2020
86,238,2030,2030
87,241,2077,2077
88,244,2160,2160
89,247,2270,2270
90,250,2396,2396
91,252,2520,2520
92,255,2613,2613
93,258,2648,2648
94,261,2613,2613
95,263,2519,2519
96,266,2394,2394
97,269,2266,2266
98,272,2152,2152
99,275,2056,2056
100,277,1979,1979
101,280,1925,1925
102,283,1898,1898
103,286,1912,1912
104,288,1947,1947
105,291,1986,1986
106,294,2017,2017
107,297,2035,2035
108,300,2044,2044
109,302,2048,2048
110,305,2048,2048
111,308,2048,2048
112,311,2048,2048
113,313,2048,2048
114,316,2048,2048
115,319,2048,2048
116,322,2048,2048
117,325,2048,2048
118,327,2048,2048
119,330,2048,2048
120,333,2048,2048
121,336,2048,2048
122,338,2048,2048
123,341,2048,2048
124,344,2048,2048
125,347,2048,2048
126,350,2048,2048
127,352,2048,2048
128,355,2048,2048
129,358,2048,2048
130,361,2048,2048
131,363,2048,2048
132,366,2048,2048
133,369,2048,2048
134,372,2048,2048
135,375,2048,2048
136,377,2048,2048
137,380,2048,2048
138,383,2048,2048
139,386,2048,2048
140,388,2048,2048
141,391,2048,2048
142,394,2048,2048
143,397,2048,2048
144,400,2048,2048
145,402,2048,2048
146,405,2048,2048
147,408,2049,2049
148,411,2049,2049
149,413,2050,2050
150,416,2051,2051
151,419,2052,2052
152,422,2053,2053
153,425,2055,2055
154,427,2057,2057
155,430,2060,2060
156,433,2063,2063
157,436,2067,2067
158,438,2072,2072
159,441,2078,2078
160,444,2084,2084
161,447,2091,2091
162,450,2099,2099
163,452,2107,2107
164,455,2115,2115
165,458,2123,2123
166,461,2131,2131
167,463,2139,2139
168,466,2145,2145
169,469,2151,2151
170,472,2155,2155
171,475,2157,2157
172,477,2158,2158
173,480,2157,2157
174,483,2155,2155
175,486,2151,2151
176,488,2145,2145
177,491,2139,2139
178,494,2131,2131
179,497,2123,2123
180,500,2115,2115
181,502,2107,2107
182,505,2099,2099
183,508,2091,2091
184,511,2084,2084
185,513,2078,2078
186,516,2072,2072
187,519,2067,2067
188,522,2063,2063
189,525,2060,2060
190,527,2057,2057
191,530,2055,2055
192,533,2053,2053
193,536,2052,2052
194,538,2051,2051
195,541,2050,2050
196,544,2049,2049
197,547,2048,2048
198,550,2048,2048
199,552,2048,2048
200,555,2048,2048
201,558,2048,2048
202,561,2048,2048
203,563,2048,2048
204,566,2048,2048
205,569,2048,2048
206,572,2048,2048
207,575,2048,2048
208,577,2048,2048
209,580,2048,2048
210,583,2048,2048
211,586,2048,2048
212,588,2048,2048
213,591,2048,2048
214,594,2048,2048
215,597,2048,2048
216,600,2048,2048
217,602,2048,2048
218,605,2048,2048
219,608,2048,2048
220,611,2048,2048
221,613,2048,2048
222,616,2048,2048
223,619,2048,2048
224,622,2048,2048
225,625,2048,2048
226,627,2048,2048
227,630,2048,2048
228,633,2048,2048
229,636,2048,2048
230,638,2048,2048
231,641,2048,2048
232,644,2048,2048
233,647,2048,2048
234,650,2048,2048
235,652,2048,2048
236,655,2048,2048
237,658,2048,2048
238,661,2048,2048
239,663,2048,2048
240,666,2048,2048
241,669,2048,2048
242,672,2048,2048
243,675,2048,2048
244,677,2048,2048
245,680,2048,2048
246,683,2048,2048
247,686,2048,2048
248,688,2048,2048
249,691,2048,2048
250,694,2048,2048
251,697,2048,2048
252,700,2048,2048
253,702,2048,2048
254,705,2048,2048
255,708,2048,2048
256,711,2048,2048
257,713,2048,2048
258,716,2048,2048
259,719,2048,2048
260,722,2048,2048
261,725,2048,2048
262,727,2048,2048
263,730,2048,2048
264,733,2048,2048
265,736,2048,2048
266,738,2048,2048
267,741,2048,2048
268,744,2048,2048
269,747,2048,2048
270,750,2048,2048
271,752,2048,2048
272,755,2048,2048
273,758,2048,2048
274,761,2048,2048
275,763,2048,2048
276,766,2048,2048
277,769,2048,2048
278,772,2048,2048
279,775,2048,2048
280,777,2048,2048
281,780,2048,2048
282,783,2048,2048
283,786,2048,2048
284,788,2048,2048
285,791,2048,2048
286,794,2048,2048
287,797,2048,2048
288,800,2048,2048
289,802,2048,2048
290,805,2048,2048
291,808,2048,2048
292,811,2048,2048
293,813,2048,2048
294,816,2048,2048
295,819,2048,2048
296,822,2048,2048
297,825,2048,2048
298,827,2048,2048
299,830,2048,2048
300,833,2048,2048
301,836,2048,2048
302,838,2048,2048
303,841,2048,2048
304,844,2048,2048
305,847,2048,2048
306,850,2048,2048
307,852,2048,2048
308,855,2048,2048
309,858,2048,2048
310,861,2048,2048
311,863,2048,2048
312,866,2048,2048
313,869,2048,2048
314,872,2048,2048
315,875,2048,2048
316,877,2048,2048
317,880,2048,2048
318,883,2048,2048
319,886,2048,2048
320,888,2048,2048
321,891,2049,2049
322,894,2049,2049
323,897,2050,2050
324,900,2052,2052
325,902,2054,2054
326,905,2057,2057
327,908,2061,2061
328,911,2066,2066
329,913,2072,2072
330,916,2078,2078
331,919,2085,2085
332,922,2092,2092
333,925,2099,2099
334,927,2104,2104
335,930,2107,2107
336,933,2108,2108
337,936,2107,2107
338,938,2104,2104
339,941,2099,2099
340,944,2092,2092
341,947,2085,2085
342,950,2078,2078
343,952,2072,2072
344,955,2066,2066
345,958,2061,2061
346,961,2057,2057
347,963,2054,2054
348,966,2052,2052
349,969,2050,2050
350,972,2049,2049
351,975,2049,2049
352,977,2048,2048
353,980,2048,2048
354,983,2048,2048
355,986,2048,2048
356,988,2048,2048
357,991,2048,2048
358,994,2048,2048
359,997,2048,2048
360,1000,2048,2048
361,1002,2048,2048
362,1005,2048,2048
363,1008,2048,2048
364,1011,2048,2048
365,1013,2048,2048
366,1016,2048,2048
367,1019,2048,2048
368,1022,2048,2048
369,1025,2048,2048
370,1027,2048,2048
371,1030,2048,2048
372,1033,2048,2048
373,1036,2048,2048
374,1038,2048,2048
375,1041,2048,2048
376,1044,2048,2048
377,1047,2048,2048
378,1050,2048,2048
379,1052,2048,2048
380,1055,2048,2048
381,1058,2048,2048
382,1061,2046,2046
383,1063,2039,2039
384,1066,2030,2030
385,1069,2020,2020
386,1072,2030,2030
387,1075,2077,2077
388,1077,2160,2160
389,1080,2270,2270
390,1083,2396,2396
391,1086,2520,2520
392,1088,2613,2613
393,1091,2648,2648
394,1094,2613,2613
395,1097,2519,2519
396,1100,2394,2394
397,1102,2266,2266
398,1105,2152,2152
399,1108,2056,2056
400,1111,1979,1979
401,1113,1925,1925
402,1116,1898,1898
403,1119,1912,1912
404,1122,1947,1947
405,1125,1986,1986
406,1127,2017,2017
407,1130,2035,2035
408,1133,2044,2044
409,1136,2048,2048
410,1138,2048,2048
411,1141,2048,2048
412,1144,2048,2048
413,1147,2048,2048
414,1150,2048,2048
415,1152,2048,2048
416,1155,2048,2048
417,1158,2048,2048
418,1161,2048,2048
419,1163,2048,2048
420,1166,2048,2048
421,1169,2048,2048
422,1172,2048,2048
423,1175,2048,2048
424,1177,2048,2048
425,1180,2048,2048
426,1183,2048,2048
427,1186,2048,2048
428,1188,2048,2048
429,1191,2048,2048
430,1194,2048,2048
431,1197,2048,2048
432,1200,2048,2048
433,1202,2048,2048
434,1205,2048,2048
435,1208,2048,2048
436,1211,2048,2048
437,1213,2048,2048
438,1216,2048,2048
439,1219,2048,2048
440,1222,2048,2048
441,1225,2048,2048
442,1227,2048,2048
443,1230,2048,2048
444,1233,2048,2048
445,1236,2048,2048
446,1238,2048,2048
447,1241,2049,2049
448,1244,2049,2049
449,1247,2050,2050
450,1250,2051,2051
451,1252,2052,2052
452,1255,2053,2053
453,1258,2055,2055
454,1261,2057,2057
455,1263,2060,2060
456,1266,2063,2063
457,1269,2067,2067
458,1272,2072,2072
459,1275,2078,2078
460,1277,2084,2084
461,1280,2091,2091
462,1283,2099,2099
463,1286,2107,2107
464,1288,2115,2115
465,1291,2123,2123
466,1294,2131,2131
467,1297,2139,2139
468,1300,2145,2145
469,1302,2151,2151
470,1305,2155,2155
471,1308,2157,2157
472,1311,2158,2158
473,1313,2157,2157
474,1316,2155,2155
475,1319,2151,2151
476,1322,2145,2145
477,1325,2139,2139
478,1327,2131,2131
479,1330,2123,2123
480,1333,2115,2115
481,1336,2107,2107
482,1338,2099,2099
483,1341,2091,2091
484,1344,2084,2084
485,1347,2078,2078
486,1350,2072,2072
487,1352,2067,2067
488,1355,2063,2063
489,1358,2060,2060
490,1361,2057,2057
491,1363,2055,2055
492,1366,2053,2053
493,1369,2052,2052
494,1372,2051,2051
495,1375,2050,2050
496,1377,2049,2049
497,1380,2048,2048
498,1383,2048,2048
499,1386,2048,2048
500,1388,2048,2048
501,1391,2048,2048
502,1394,2048,2048
503,1397,2048,2048
504,1400,2048,2048
505,1402,2048,2048
506,1405,2048,2048
507,1408,2048,2048
508,1411,2048,2048
509,1413,2048,2048
510,1416,2048,2048
511,1419,2048,2048
512,1422,2048,2048
513,1425,2048,2048
514,1427,2048,2048
515,1430,2048,2048
516,1433,2048,2048
517,1436,2048,2048
518,1438,2048,2048
519,1441,2048,2048
520,1444,2048,2048
521,1447,2048,2048
522,1450,2048,2048
523,1452,2048,2048
524,1455,2048,2048
525,1458,2048,2048
526,1461,2048,2048
527,1463,2048,2048
528,1466,2048,2048
529,1469,2048,2048
530,1472,2048,2048
531,1475,2048,2048
532,1477,2048,2048
533,1480,2048,2048
534,1483,2048,2048
535,1486,2048,2048
536,1488,2048,2048
537,1491,2048,2048
538,1494,2048,2048
539,1497,2048,2048
540,1500,2048,2048
541,1502,2048,2048
542,1505,2048,2048
543,1508,2048,2048
544,1511,2048,2048
545,1513,2048,2048
546,1516,2048,2048
547,1519,2048,2048
548,1522,2048,2048
549,1525,2048,2048
550,1527,2048,2048
551,1530,2048,2048
552,1533,2048,2048
553,1536,2048,2048
554,1538,2048,2048
555,1541,2048,2048
556,1544,2048,2048
557,1547,2048,2048
558,1550,2048,2048
559,1552,2048,2048
560,1555,2048,2048
561,1558,2048,2048
562,1561,2048,2048
563,1563,2048,2048
564,1566,2048,2048
565,1569,2048,2048
566,1572,2048,2048
567,1575,2048,2048
568,1577,2048,2048
569,1580,2048,2048
570,1583,2048,2048
571,1586,2048,2048
572,1588,2048,2048
573,1591,2048,2048
574,1594,2048,2048
575,1597,2048,2048
576,1600,2048,2048
577,1602,2048,2048
578,1605,2048,2048
579,1608,2048,2048
580,1611,2048,2048
581,1613,2048,2048
582,1616,2048,2048
583,1619,2048,2048
584,1622,2048,2048
585,1625,2048,2048
586,1627,2048,2048
587,1630,2048,2048
588,1633,2048,2048
589,1636,2048,2048
590,1638,2048,2048
591,1641,2048,2048
592,1644,2048,2048
593,1647,2048,2048
594,1650,2048,2048
595,1652,2048,2048
596,1655,2048,2048
597,1658,2048,2048
598,1661,2048,2048
599,1663,2048,2048
600,1666,2048,2048
601,1669,2048,2048
602,1672,2048,2048
603,1675,2048,2048
604,1677,2048,2048
605,1680,2048,2048
606,1683,2048,2048
607,1686,2048,2048
608,1688,2048,2048
609,1691,2048,2048
610,1694,2048,2048
611,1697,2048,2048
612,1700,2048,2048
613,1702,2048,2048
614,1705,2048,2048
615,1708,2048,2048
616,1711,2048,2048
617,1713,2048,2048
618,1716,2048,2048
619,1719,2048,2048
620,1722,2048,2048
621,1725,2049,2049
622,1727,2049,2049
623,1730,2050,2050
624,1733,2052,2052
625,1736,2054,2054
626,1738,2057,2057
627,1741,2061,2061
628,1744,2066,2066
629,1747,2072,2072
630,1750,2078,2078
631,1752,2085,2085
632,1755,2092,2092
633,1758,2099,2099
634,1761,2104,2104
635,1763,2107,2107
636,1766,2108,2108
637,1769,2107,2107
638,1772,2104,2104
639,1775,2099,2099
640,1777,2092,2092
641,1780,2085,2085
642,1783,2078,2078
643,1786,2072,2072
644,1788,2066,2066
645,1791,2061,2061
646,1794,2057,2057
647,1797,2054,2054
648,1800,2052,2052
649,1802,2050,2050
650,1805,2049,2049
651,1808,2049,2049
652,1811,2048,2048
653,1813,2048,2048
654,1816,2048,2048
655,1819,2048,2048
656,1822,2048,2048
657,1825,2048,2048
658,1827,2048,2048
659,1830,2048,2048
660,1833,2048,2048
661,1836,2048,2048
662,1838,2048,2048
663,1841,2048,2048
664,1844,2048,2048
665,1847,2048,2048
666,1850,2048,2048
667,1852,2048,2048
668,1855,2048,2048
669,1858,2048,2048
670,1861,2048,2048
671,1863,2048,2048
672,1866,2048,2048
673,1869,2048,2048
674,1872,2048,2048
675,1875,2048,2048
676,1877,2048,2048
677,1880,2048,2048
678,1883,2048,2048
679,1886,2048,2048
680,1888,2048,2048
681,1891,2048,2048
682,1894,2046,2046
683,1897,2039,2039
684,1900,2030,2030
685,1902,2020,2020
686,1905,2030,2030
687,1908,2077,2077
688,1911,2160,2160
689,1913,2270,2270
690,1916,2396,2396
691,1919,2520,2520
692,1922,2613,2613
693,1925,2648,2648
694,1927,2613,2613
695,1930,2519,2519
696,1933,2394,2394
697,1936,2266,2266
698,1938,2152,2152
699,1941,2056,2056
700,1944,1979,1979
701,1947,1925,1925
702,1950,1898,1898
703,1952,1912,1912
704,1955,1947,1947
705,1958,1986,1986
706,1961,2017,2017
707,1963,2035,2035
708,1966,2044,2044
709,1969,2048,2048
710,1972,2048,2048
711,1975,2048,2048
712,1977,2048,2048
713,1980,2048,2048
714,1983,2048,2048
715,1986,2048,2048
716,1988,2048,2048
717,1991,2048,2048
718,1994,2048,2048
719,1997,2048,2048
720,2000,2048,2048
721,2002,2048,2048
722,2005,2048,2048
723,2008,2048,2048
724,2011,2048,2048
725,2013,2048,2048
726,2016,2048,2048
727,2019,2048,2048
728,2022,2048,2048
729,2025,2048,2048
730,2027,2048,2048
731,2030,2048,2048
732,2033,2048,2048
733,2036,2048,2048
734,2038,2048,2048
735,2041,2048,2048
736,2044,2048,2048
737,2047,2048,2048
738,2050,2048,2048
739,2052,2048,2048
740,2055,2048,2048
741,2058,2048,2048
742,2061,2048,2048
743,2063,2048,2048
744,2066,2048,2048
745,2069,2048,2048
746,2072,2048,2048
747,2075,2049,2049
748,2077,2049,2049
749,2080,2050,2050
750,2083,2051,2051
751,2086,2052,2052
752,2088,2053,2053
753,2091,2055,2055
754,2094,2057,2057
755,2097,2060,2060
756,2100,2063,2063
757,2102,2067,2067
758,2105,2072,2072
759,2108,2078,2078
760,2111,2084,2084
761,2113,2091,2091
762,2116,2099,2099
763,2119,2107,2107
764,2122,2115,2115
765,2125,2123,2123
766,2127,2131,2131
767,2130,2139,2139
768,2133,2145,2145
769,2136,2151,2151
770,2138,2155,2155
771,2141,2157,2157
772,2144,2158,2158
773,2147,2157,2157
774,2150,2155,2155
775,2152,2151,2151
776,2155,2145,2145
777,2158,2139,2139
778,2161,2131,2131
779,2163,2123,2123
780,2166,2115,2115
781,2169,2107,2107
782,2172,2099,2099
783,2175,2091,2091
784,2177,2084,2084
785,2180,2078,2078
786,2183,2072,2072
787,2186,2067,2067
788,2188,2063,2063
789,2191,2060,2060
790,2194,2057,2057
791,2197,2055,2055
792,2200,2053,2053
793,2202,2052,2052
794,2205,2051,2051
795,2208,2050,2050
796,2211,2049,2049
797,2213,2048,2048
798,2216,2048,2048
799,2219,2048,2048
800,2222,2048,2048
801,2225,2048,2048
802,2227,2048,2048
803,2230,2048,2048
804,2233,2048,2048
805,2236,2048,2048
806,2238,2048,2048
807,2241,2048,2048
808,2244,2048,2048
809,2247,2048,2048
810,2250,2048,2048
811,2252,2048,2048
812,2255,2048,2048
813,2258,2048,2048
814,2261,2048,2048
815,2263,2048,2048
816,2266,2048,2048
817,2269,2048,2048
818,2272,2048,2048
819,2275,2048,2048
820,2277,2048,2048
821,2280,2048,2048
822,2283,2048,2048
823,2286,2048,2048
824,2288,2048,2048
825,2291,2048,2048
826,2294,2048,2048
827,2297,2048,2048
828,2300,2048,2048
829,2302,2048,2048
830,2305,2048,2048
831,2308,2048,2048
832,2311,2048,2048
833,2313,2048,2048
834,2316,2048,2048
835,2319,2048,2048
836,2322,2048,2048
837,2325,2048,2048
838,2327,2048,2048
839,2330,2048,2048
840,2333,2048,2048
841,2336,2048,2048
842,2338,2048,2048
843,2341,2048,2048
844,2344,2048,2048
845,2347,2048,2048
846,2350,2048,2048
847,2352,2048,2048
848,2355,2048,2048
849,2358,2048,2048
850,2361,2048,2048
851,2363,2048,2048
852,2366,2048,2048
853,2369,2048,2048
854,2372,2048,2048
855,2375,2048,2048
856,2377,2048,2048
857,2380,2048,2048
858,2383,2048,2048
859,2386,2048,2048
860,2388,2048,2048
861,2391,2048,2048
862,2394,2048,2048
863,2397,2048,2048
864,2400,2048,2048
865,2402,2048,2048
866,2405,2048,2048
867,2408,2048,2048
868,2411,2054,2054
869,2413,2057,2057
870,2416,2011,2011
871,2419,2017,2017
872,2422,2024,2024
873,2425,2034,2034
874,2427,2047,2047
875,2430,2063,2063
876,2433,2083,2083
877,2436,2108,2108
878,2438,2138,2138
879,2441,2173,2173
880,2444,2264,2264
881,2447,2310,2310
882,2450,2361,2361
883,2452,2417,2417
884,2455,2475,2475
885,2458,2535,2535
886,2461,2591,2591
887,2463,2647,2647
888,2466,2698,2698
889,2469,2742,2742
890,2472,2777,2777
891,2475,2801,2801
892,2477,2812,2812
893,2480,2809,2809
894,2483,2791,2791
895,2486,2759,2759
896,2488,2713,2713
897,2491,2654,2654
898,2494,2584,2584
899,2497,2504,2504
900,2500,2416,2416
901,2502,2324,2324
902,2505,2229,2229
903,2508,2133,2133
904,2511,2038,2038
905,2513,1946,1946
906,2516,1860,1860
907,2519,1780,1780
908,2522,1708,1708
909,2525,1644,1644
910,2527,1590,1590
911,2530,1546,1546
912,2533,1511,1511
913,2536,1488,1488
914,2538,1474,1474
915,2541,1471,1471
916,2544,1476,1476
917,2547,1490,1490
918,2550,1504,1504
919,2552,1534,1534
920,2555,1568,1568
921,2558,1605,1605
922,2561,1644,1644
923,2563,1684,1684
924,2566,1724,1724
925,2569,1764,1764
926,2572,1801,1801
927,2575,1837,1837
928,2577,1869,1869
929,2580,1898,1898
930,2583,1924,1924
931,2586,1947,1947
932,2588,1967,1967
933,2591,1983,1983
934,2594,1997,1997
935,2597,2009,2009
936,2600,2018,2018
937,2602,2025,2025
938,2605,2031,2031
939,2608,2035,2035
940,2611,2039,2039
941,2613,2041,2041
942,2616,2048,2048
943,2619,2048,2048
944,2622,2048,2048
945,2625,2048,2048
946,2627,2048,2048
947,2630,2047,2047
948,2633,2046,2046
949,2636,2046,2046
950,2638,2044,2044
951,2641,2043,2043
952,2644,2041,2041
953,2647,2039,2039
954,2650,2036,2036
955,2652,2032,2032
956,2655,2027,2027
957,2658,2022,2022
958,2661,2015,2015
959,2663,2007,2007
960,2666,1999,1999
961,2669,1989,1989
962,2672,1979,1979
963,2675,1968,1968
964,2677,1957,1957
965,2680,1945,1945
966,2683,1934,1934
967,2686,1924,1924
968,2688,1915,1915
969,2691,1908,1908
970,2694,1903,1903
971,2697,1899,1899
972,2700,1898,1898
973,2702,1899,1899
974,2705,1903,1903
975,2708,1908,1908
976,2711,1915,1915
977,2713,1924,1924
978,2716,1934,1934
979,2719,1945,1945
980,2722,1957,1957
981,2725,1968,1968
982,2727,1979,1979
983,2730,1989,1989
984,2733,1999,1999
985,2736,2007,2007
986,2738,2015,2015
987,2741,2022,2022
988,2744,2027,2027
989,2747,2032,2032
990,2750,2036,2036
991,2752,2039,2039
992,2755,2041,2041
993,2758,2043,2043
994,2761,2044,2044
995,2763,2046,2046
996,2766,2048,2048
997,2769,2048,2048
998,2772,2048,2048
999,2775,2048,2048
1000,2777,2048,2048
1001,2780,2048,2048
1002,2783,2048,2048
1003,2786,2048,2048
1004,2788,2048,2048
1005,2791,2048,2048
1006,2794,2048,2048
1007,2797,2048,2048
1008,2800,2048,2048
1009,2802,2048,2048
1010,2805,2048,2048
1011,2808,2048,2048
1012,2811,2048,2048
1013,2813,2048,2048
1014,2816,2048,2048
1015,2819,2048,2048
1016,2822,2048,2048
1017,2825,2048,2048
1018,2827,2048,2048
1019,2830,2048,2048
1020,2833,2048,2048
1021,2836,2048,2048
1022,2838,2048,2048
1023,2841,2048,2048
1024,2844,2048,2048
1025,2847,2048,2048
1026,2850,2048,2048
1027,2852,2048,2048
1028,2855,2048,2048
1029,2858,2048,2048
1030,2861,2048,2048
1031,2863,2048,2048
1032,2866,2048,2048
1033,2869,2048,2048
1034,2872,2048,2048
1035,2875,2048,2048
1036,2877,2048,2048
1037,2880,2048,2048
1038,2883,2048,2048
1039,2886,2048,2048
1040,2888,2048,2048
1041,2891,2048,2048
1042,2894,2048,2048
1043,2897,2048,2048
1044,2900,2048,2048
1045,2902,2048,2048
1046,2905,2048,2048
1047,2908,2048,2048
1048,2911,2048,2048
1049,2913,2048,2048
1050,2916,2048,2048
1051,2919,2048,2048
1052,2922,2048,2048
1053,2925,2048,2048
1054,2927,2048,2048
1055,2930,2048,2048
1056,2933,2048,2048
1057,2936,2048,2048
1058,2938,2048,2048
1059,2941,2048,2048
1060,2944,2048,2048
1061,2947,2048,2048
1062,2950,2048,2048
1063,2952,2048,2048
1064,2955,2048,2048
1065,2958,2048,2048
1066,2961,2048,2048
1067,2963,2048,2048
1068,2966,2048,2048
1069,2969,2048,2048
1070,2972,2048,2048
1071,2975,2048,2048
1072,2977,2048,2048
1073,2980,2048,2048
1074,2983,2048,2048
1075,2986,2048,2048
1076,2988,2048,2048
1077,2991,2048,2048
1078,2994,2048,2048
1079,2997,2048,2048
1080,3000,2048,2048
1081,3002,2048,2048
1082,3005,2048,2048
1083,3008,2048,2048
1084,3011,2048,2048
1085,3013,2048,2048
1086,3016,2048,2048
1087,3019,2048,2048
1088,3022,2048,2048
1089,3025,2048,2048
1090,3027,2048,2048
1091,3030,2048,2048
1092,3033,2048,2048
1093,3036,2048,2048
1094,3038,2048,2048
1095,3041,2048,2048
1096,3044,2048,2048
1097,3047,2048,2048
1098,3050,2048,2048
1099,3052,2048,2048
1100,3055,2048,2048
1101,3058,2048,2048
1102,3061,2048,2048
1103,3063,2048,2048
1104,3066,2048,2048
1105,3069,2048,2048
1106,3072,2048,2048
1107,3075,2048,2048
1108,3077,2048,2048
1109,3080,2048,2048
1110,3083,2048,2048
1111,3086,2048,2048
1112,3088,2048,2048
1113,3091,2048,2048
1114,3094,2048,2048
1115,3097,2048,2048
1116,3100,2048,2048
1117,3102,2048,2048
1118,3105,2048,2048
1119,3108,2048,2048
1120,3111,2048,2048
1121,3113,2048,2048
1122,3116,2048,2048
1123,3119,2048,2048
1124,3122,2048,2048
1125,3125,2048,2048
1126,3127,2048,2048
1127,3130,2048,2048
1128,3133,2048,2048
1129,3136,2048,2048
1130,3138,2048,2048
1131,3141,2048,2048
1132,3144,2048,2048
1133,3147,2048,2048
1134,3150,2048,2048
1135,3152,2048,2048
1136,3155,2048,2048
1137,3158,2048,2048
1138,3161,2048,2048
1139,3163,2048,2048
1140,3166,2048,2048
1141,3169,2048,2048
1142,3172,2048,2048
1143,3175,2048,2048
1144,3177,2048,2048
1145,3180,2048,2048
1146,3183,2048,2048
1147,3186,2048,2048
1148,3188,2048,2048
1149,3191,2048,2048
1150,3194,2048,2048
1151,3197,2048,2048
1152,3200,2048,2048
1153,3202,2048,2048
1154,3205,2048,2048
1155,3208,2048,2048
1156,3211,2048,2048
1157,3213,2048,2048
1158,3216,2048,2048
1159,3219,2048,2048
1160,3222,2048,2048
1161,3225,2048,2048
1162,3227,2048,2048
1163,3230,2048,2048
1164,3233,2048,2048
1165,3236,2048,2048
1166,3238,2048,2048
1167,3241,2048,2048
1168,3244,2048,2048
1169,3247,2048,2048
1170,3250,2048,2048
1171,3252,2048,2048
1172,3255,2048,2048
1173,3258,2048,2048
1174,3261,2048,2048
1175,3263,2048,2048
1176,3266,2048,2048
1177,3269,2048,2048
1178,3272,2048,2048
1179,3275,2048,2048
1180,3277,2048,2048
1181,3280,2048,2048
1182,3283,2048,2048
1183,3286,2048,2048
1184,3288,2048,2048
1185,3291,2048,2048
1186,3294,2048,2048
1187,3297,2048,2048
1188,3300,2048,2048
1189,3302,2048,2048
1190,3305,2048,2048
1191,3308,2048,2048
1192,3311,2048,2048
1193,3313,2048,2048
1194,3316,2048,2048
1195,3319,2048,2048
1196,3322,2048,2048
1197,3325,2048,2048
1198,3327,2048,2048
1199,3330,2048,2048
1200,3333,2048,2048
1201,3336,2048,2048
1202,3338,2048,2048
1203,3341,2048,2048
1204,3344,2048,2048
1205,3347,2048,2048
1206,3350,2048,2048
1207,3352,2048,2048
1208,3355,2048,2048
1209,3358,2048,2048
1210,3361,2048,2048
1211,3363,2048,2048
1212,3366,2048,2048
1213,3369,2048,2048
1214,3372,2048,2048
1215,3375,2048,2048
1216,3377,2048,2048
1217,3380,2048,2048
1218,3383,2048,2048
1219,3386,2048,2048
1220,3388,2048,2048
1221,3391,2048,2048
1222,3394,2048,2048
1223,3397,2048,2048
1224,3400,2048,2048
1225,3402,2048,2048
1226,3405,2048,2048
1227,3408,2048,2048
1228,3411,2048,2048
1229,3413,2048,2048
1230,3416,2048,2048
1231,3419,2048,2048
1232,3422,2048,2048
1233,3425,2049,2049
1234,3427,2049,2049
1235,3430,2050,2050
1236,3433,2052,2052
1237,3436,2054,2054
1238,3438,2057,2057
1239,3441,2061,2061
1240,3444,2066,2066
1241,3447,2072,2072
1242,3450,2078,2078
1243,3452,2085,2085
1244,3455,2092,2092
1245,3458,2099,2099
1246,3461,2104,2104
1247,3463,2107,2107
1248,3466,2108,2108
1249,3469,2107,2107
1250,3472,2104,2104
1251,3475,2099,2099
1252,3477,2092,2092
1253,3480,2085,2085
1254,3483,2078,2078
1255,3486,2072,2072
1256,3488,2066,2066
1257,3491,2061,2061
1258,3494,2057,2057
1259,3497,2054,2054
1260,3500,2052,2052
1261,3502,2050,2050
1262,3505,2049,2049
1263,3508,2049,2049
1264,3511,2048,2048
1265,3513,2048,2048
1266,3516,2048,2048
1267,3519,2048,2048
1268,3522,2048,2048
1269,3525,2048,2048
1270,3527,2048,2048
1271,3530,2048,2048
1272,3533,2048,2048
1273,3536,2048,2048
1274,3538,2048,2048
1275,3541,2048,2048
1276,3544,2048,2048
1277,3547,2048,2048
1278,3550,2048,2048
1279,3552,2048,2048
1280,3555,2048,2048
1281,3558,2048,2048
1282,3561,2048,2048
1283,3563,2048,2048
1284,3566,2048,2048
1285,3569,2048,2048
1286,3572,2048,2048
1287,3575,2048,2048
1288,3577,2048,2048
1289,3580,2048,2048
1290,3583,2048,2048
1291,3586,2048,2048
1292,3588,2048,2048
1293,3591,2048,2048
1294,3594,2046,2046
1295,3597,2039,2039
1296,3600,2030,2030
1297,3602,2020,2020
1298,3605,2030,2030
1299,3608,2077,2077
1300,3611,2160,2160
1301,3613,2270,2270
1302,3616,2396,2396
1303,3619,2520,2520
1304,3622,2613,2613
1305,3625,2648,2648
1306,3627,2613,2613
1307,3630,2519,2519
1308,3633,2394,2394
1309,3636,2266,2266
1310,3638,2152,2152
1311,3641,2056,2056
1312,3644,1979,1979
1313,3647,1925,1925
1314,3650,1898,1898
1315,3652,1912,1912
1316,3655,1947,1947
1317,3658,1986,1986
1318,3661,2017,2017
1319,3663,2035,2035
1320,3666,2044,2044
1321,3669,2048,2048
1322,3672,2048,2048
1323,3675,2048,2048
1324,3677,2048,2048
1325,3680,2048,2048
1326,3683,2048,2048
1327,3686,2048,2048
1328,3688,2048,2048
1329,3691,2048,2048
1330,3694,2048,2048
1331,3697,2048,2048
1332,3700,2048,2048
1333,3702,2048,2048
1334,3705,2048,2048
1335,3708,2048,2048
1336,3711,2048,2048
1337,3713,2048,2048
1338,3716,2048,2048
1339,3719,2048,2048
1340,3722,2048,2048
1341,3725,2048,2048
1342,3727,2048,2048
1343,3730,2048,2048
1344,3733,2048,2048
1345,3736,2048,2048
1346,3738,2048,2048
1347,3741,2048,2048
1348,3744,2048,2048
1349,3747,2048,2048
1350,3750,2048,2048
1351,3752,2048,2048
1352,3755,2048,2048
1353,3758,2048,2048
1354,3761,2048,2048
1355,3763,2048,2048
1356,3766,2048,2048
1357,3769,2048,2048
1358,3772,2048,2048
1359,3775,2049,2049
1360,3777,2049,2049
1361,3780,2050,2050
1362,3783,2051,2051
1363,3786,2052,2052
1364,3788,2053,2053
1365,3791,2055,2055
1366,3794,2057,2057
1367,3797,2060,2060
1368,3800,2063,2063
1369,3802,2067,2067
1370,3805,2072,2072
1371,3808,2078,2078
1372,3811,2084,2084
1373,3813,2091,2091
1374,3816,2099,2099
1375,3819,2107,2107
1376,3822,2115,2115
1377,3825,2123,2123
1378,3827,2131,2131
1379,3830,2139,2139
1380,3833,2145,2145
1381,3836,2151,2151
1382,3838,2155,2155
1383,3841,2157,2157
1384,3844,2158,2158
1385,3847,2157,2157
1386,3850,2155,2155
1387,3852,2151,2151
1388,3855,2145,2145
1389,3858,2139,2139
1390,3861,2131,2131
1391,3863,2123,2123
1392,3866,2115,2115
1393,3869,2107,2107
1394,3872,2099,2099
1395,3875,2091,2091
1396,3877,2084,2084
1397,3880,2078,2078
1398,3883,2072,2072
1399,3886,2067,2067
1400,3888,2063,2063
1401,3891,2060,2060
1402,3894,2057,2057
1403,3897,2055,2055
1404,3900,2053,2053
1405,3902,2052,2052
1406,3905,2051,2051
1407,3908,2050,2050
1408,3911,2049,2049
1409,3913,2048,2048
1410,3916,2048,2048
1411,3919,2048,2048
1412,3922,2048,2048
1413,3925,2048,2048
1414,3927,2048,2048
1415,3930,2048,2048
1416,3933,2048,2048
1417,3936,2048,2048
1418,3938,2048,2048
1419,3941,2048,2048
1420,3944,2048,2048
1421,3947,2048,2048
1422,3950,2048,2048
1423,3952,2048,2048
1424,3955,2048,2048
1425,3958,2048,2048
1426,3961,2048,2048
1427,3963,2048,2048
1428,3966,2048,2048
1429,3969,2048,2048
1430,3972,2048,2048
1431,3975,2048,2048
1432,3977,2048,2048
1433,3980,2048,2048
1434,3983,2048,2048
1435,3986,2048,2048
1436,3988,2048,2048
1437,3991,2048,2048
1438,3994,2048,2048
1439,3997,2048,2048
1440,4000,2048,2048
1441,4002,2048,2048
1442,4005,2048,2048
1443,4008,2048,2048
1444,4011,2048,2048
1445,4013,2048,2048
1446,4016,2048,2048
1447,4019,2048,2048
1448,4022,2048,2048
1449,4025,2048,2048
1450,4027,2048,2048
1451,4030,2048,2048
1452,4033,2048,2048
1453,4036,2048,2048
1454,4038,2048,2048
1455,4041,2048,2048
1456,4044,2048,2048
1457,4047,2048,2048
1458,4050,2048,2048
1459,4052,2048,2048
1460,4055,2048,2048
1461,4058,2048,2048
1462,4061,2048,2048
1463,4063,2048,2048
1464,4066,2048,2048
1465,4069,2048,2048
1466,4072,2048,2048
1467,4075,2048,2048
1468,4077,2048,2048
1469,4080,2048,2048
1470,4083,2048,2048
1471,4086,2048,2048
1472,4088,2048,2048
1473,4091,2048,2048
1474,4094,2048,2048
1475,4097,2048,2048
1476,4100,2048,2048
1477,4102,2048,2048
1478,4105,2048,2048
1479,4108,2048,2048
1480,4111,2048,2048
1481,4113,2048,2048
1482,4116,2048,2048
1483,4119,2048,2048
1484,4122,2048,2048
1485,4125,2048,2048
1486,4127,2048,2048
1487,4130,2048,2048
1488,4133,2048,2048
1489,4136,2048,2048
1490,4138,2048,2048
1491,4141,2048,2048
1492,4144,2048,2048
1493,4147,2048,2048
1494,4150,2048,2048
1495,4152,2048,2048
1496,4155,2048,2048
1497,4158,2048,2048
1498,4161,2048,2048
1499,4163,2048,2048
1500,4166,2048,2048
1501,4169,2048,2048
1502,4172,2048,2048
1503,4175,2048,2048
1504,4177,2048,2048
1505,4180,2048,2048
1506,4183,2048,2048
1507,4186,2048,2048
1508,4188,2048,2048
1509,4191,2048,2048
1510,4194,2048,2048
1511,4197,2048,2048
1512,4200,2048,2048
1513,4202,2048,2048
1514,4205,2048,2048
1515,4208,2048,2048
1516,4211,2048,2048
1517,4213,2048,2048
1518,4216,2048,2048
1519,4219,2048,2048
1520,4222,2048,2048
1521,4225,2048,2048
1522,4227,2048,2048
1523,4230,2048,2048
1524,4233,2048,2048
1525,4236,2048,2048
1526,4238,2048,2048
1527,4241,2048,2048
1528,4244,2048,2048
1529,4247,2048,2048
1530,4250,2048,2048
1531,4252,2048,2048
1532,4255,2048,2048
1533,4258,2049,2049
1534,4261,2049,2049
1535,4263,2050,2050
1536,4266,2052,2052
1537,4269,2054,2054
1538,4272,2057,2057
1539,4275,2061,2061
1540,4277,2066,2066
1541,4280,2072,2072
1542,4283,2078,2078
1543,4286,2085,2085
1544,4288,2092,2092
1545,4291,2099,2099
1546,4294,2104,2104
1547,4297,2107,2107
1548,4300,2108,2108
1549,4302,2107,2107
1550,4305,2104,2104
1551,4308,2099,2099
1552,4311,2092,2092
1553,4313,2085,2085
1554,4316,2078,2078
1555,4319,2072,2072
1556,4322,2066,2066
1557,4325,2061,2061
1558,4327,2057,2057
1559,4330,2054,2054
1560,4333,2052,2052
1561,4336,2050,2050
1562,4338,2049,2049
1563,4341,2049,2049
1564,4344,2048,2048
1565,4347,2048,2048
1566,4350,2048,2048
1567,4352,2048,2048
1568,4355,2048,2048
1569,4358,2048,2048
1570,4361,2048,2048
1571,4363,2048,2048
1572,4366,2048,2048
1573,4369,2048,2048
1574,4372,2048,2048
1575,4375,2048,2048
1576,4377,2048,2048
1577,4380,2048,2048
1578,4383,2048,2048
1579,4386,2048,2048
1580,4388,2048,2048
1581,4391,2048,2048
1582,4394,2048,2048
1583,4397,2048,2048
1584,4400,2048,2048
1585,4402,2048,2048
1586,4405,2048,2048
1587,4408,2048,2048
1588,4411,2048,2048
1589,4413,2048,2048
1590,4416,2048,2048
1591,4419,2048,2048
1592,4422,2048,2048
1593,4425,2048,2048
1594,4427,2046,2046
1595,4430,2039,2039
1596,4433,2030,2030
1597,4436,2020,2020
1598,4438,2030,2030
1599,4441,2077,2077
1600,4444,2160,2160
1601,4447,2270,2270
1602,4450,2396,2396
1603,4452,2520,2520
1604,4455,2613,2613
1605,4458,2648,2648
1606,4461,2613,2613
1607,4463,2519,2519
1608,4466,2394,2394
1609,4469,2266,2266
1610,4472,2152,2152
1611,4475,2056,2056
1612,4477,1979,1979
1613,4480,1925,1925
1614,4483,1898,1898
1615,4486,1912,1912
1616,4488,1947,1947
1617,4491,1986,1986
1618,4494,2017,2017
1619,4497,2035,2035
1620,4500,2044,2044
1621,4502,2048,2048
1622,4505,2048,2048
1623,4508,2048,2048
1624,4511,2048,2048
1625,4513,2048,2048
1626,4516,2048,2048
1627,4519,2048,2048
1628,4522,2048,2048
1629,4525,2048,2048
1630,4527,2048,2048
1631,4530,2048,2048
1632,4533,2048,2048
1633,4536,2048,2048
1634,4538,2048,2048
1635,4541,2048,2048
1636,4544,2048,2048
1637,4547,2048,2048
1638,4550,2048,2048
1639,4552,2048,2048
1640,4555,2048,2048
1641,4558,2048,2048
1642,4561,2048,2048
1643,4563,2048,2048
1644,4566,2048,2048
1645,4569,2048,2048
1646,4572,2048,2048
1647,4575,2048,2048
1648,4577,2048,2048
1649,4580,2048,2048
1650,4583,2048,2048
1651,4586,2048,2048
1652,4588,2048,2048
1653,4591,2048,2048
1654,4594,2048,2048
1655,4597,2048,2048
1656,4600,2048,2048
1657,4602,2048,2048
1658,4605,2048,2048
1659,4608,2049,2049
1660,4611,2049,2049
1661,4613,2050,2050
1662,4616,2051,2051
1663,4619,2052,2052
1664,4622,2053,2053
1665,4625,2055,2055
1666,4627,2057,2057
1667,4630,2060,2060
1668,4633,2063,2063
1669,4636,2067,2067
1670,4638,2072,2072
1671,4641,2078,2078
1672,4644,2084,2084
1673,4647,2091,2091
1674,4650,2099,2099
1675,4652,2107,2107
1676,4655,2115,2115
1677,4658,2123,2123
1678,4661,2131,2131
1679,4663,2139,2139
1680,4666,2145,2145
1681,4669,2151,2151
1682,4672,2155,2155
1683,4675,2157,2157
1684,4677,2158,2158
1685,4680,2157,2157
1686,4683,2155,2155
1687,4686,2151,2151
1688,4688,2145,2145
1689,4691,2139,2139
1690,4694,2131,2131
1691,4697,2123,2123
1692,4700,2115,2115
1693,4702,2107,2107
1694,4705,2099,2099
1695,4708,2091,2091
1696,4711,2084,2084
1697,4713,2078,2078
1698,4716,2072,2072
1699,4719,2067,2067
1700,4722,2063,2063
1701,4725,2060,2060
1702,4727,2057,2057
1703,4730,2055,2055
1704,4733,2053,2053
1705,4736,2052,2052
1706,4738,2051,2051
1707,4741,2050,2050
1708,4744,2049,2049
1709,4747,2048,2048
1710,4750,2048,2048
1711,4752,2048,2048
1712,4755,2048,2048
1713,4758,2048,2048
1714,4761,2048,2048
1715,4763,2048,2048
1716,4766,2048,2048
1717,4769,2048,2048
1718,4772,2048,2048
1719,4775,2048,2048
1720,4777,2048,2048
1721,4780,2048,2048
1722,4783,2048,2048
1723,4786,2048,2048
1724,4788,2048,2048
1725,4791,2048,2048
1726,4794,2048,2048
1727,4797,2048,2048
1728,4800,2048,2048
1729,4802,2048,2048
1730,4805,2048,2048
1731,4808,2048,2048
1732,4811,2048,2048
1733,4813,2048,2048
1734,4816,2048,2048
1735,4819,2048,2048
1736,4822,2048,2048
1737,4825,2048,2048
1738,4827,2048,2048
1739,4830,2048,2048
1740,4833,2048,2048
1741,4836,2048,2048
1742,4838,2048,2048
1743,4841,2048,2048
1744,4844,2048,2048
1745,4847,2048,2048
1746,4850,2048,2048
1747,4852,2048,2048
1748,4855,2048,2048
1749,4858,2048,2048
1750,4861,2048,2048
1751,4863,2048,2048
1752,4866,2048,2048
1753,4869,2048,2048
1754,4872,2048,2048
1755,4875,2048,2048
1756,4877,2048,2048
1757,4880,2048,2048
1758,4883,2048,2048
1759,4886,2048,2048
1760,4888,2048,2048
1761,4891,2048,2048
1762,4894,2048,2048
1763,4897,2048,2048
1764,4900,2048,2048
1765,4902,2048,2048
1766,4905,2048,2048
1767,4908,2048,2048
1768,4911,2048,2048
1769,4913,2048,2048
1770,4916,2048,2048
1771,4919,2048,2048
1772,4922,2048,2048
1773,4925,2048,2048
1774,4927,2048,2048
1775,4930,2048,2048
1776,4933,2048,2048
1777,4936,2048,2048
1778,4938,2048,2048
1779,4941,2048,2048
1780,4944,2048,2048
1781,4947,2048,2048
1782,4950,2048,2048
1783,4952,2048,2048
1784,4955,2048,2048
1785,4958,2048,2048
1786,4961,2048,2048
1787,4963,2048,2048
1788,4966,2048,2048
1789,4969,2048,2048
1790,4972,2048,2048
1791,4975,2048,2048
1792,4977,2048,2048
1793,4980,2048,2048
1794,4983,2048,2048
1795,4986,2048,2048
1796,4988,2048,2048
1797,4991,2048,2048
1798,4994,2048,2048
1799,4997,2048,2048
1800,5000,2048,2048
1801,5002,2048,2048
1802,5005,2048,2048
1803,5008,2048,2048
1804,5011,2048,2048
1805,5013,2048,2048
1806,5016,2048,2048
1807,5019,2048,2048
1808,5022,2048,2048
1809,5025,2048,2048
1810,5027,2048,2048
1811,5030,2048,2048
1812,5033,2048,2048
1813,5036,2048,2048
1814,5038,2048,2048
1815,5041,2048,2048
1816,5044,2048,2048
1817,5047,2048,2048
1818,5050,2048,2048
1819,5052,2048,2048
1820,5055,2048,2048
1821,5058,2048,2048
1822,5061,2048,2048
1823,5063,2048,2048
1824,5066,2048,2048
1825,5069,2048,2048
1826,5072,2048,2048
1827,5075,2048,2048
1828,5077,2048,2048
1829,5080,2048,2048
1830,5083,2048,2048
1831,5086,2048,2048
1832,5088,2048,2048
1833,5091,2049,2049
1834,5094,2049,2049
1835,5097,2050,2050
1836,5100,2052,2052
1837,5102,2054,2054
1838,5105,2057,2057
1839,5108,2061,2061
1840,5111,2066,2066
1841,5113,2072,2072
1842,5116,2078,2078
1843,5119,2085,2085
1844,5122,2092,2092
1845,5125,2099,2099
1846,5127,2104,2104
1847,5130,2107,2107
1848,5133,2108,2108
1849,5136,2107,2107
1850,5138,2104,2104
1851,5141,2099,2099
1852,5144,2092,2092
1853,5147,2085,2085
1854,5150,2078,2078
1855,5152,2072,2072
1856,5155,2066,2066
1857,5158,2061,2061
1858,5161,2057,2057
1859,5163,2054,2054
1860,5166,2052,2052
1861,5169,2050,2050
1862,5172,2049,2049
1863,5175,2049,2049
1864,5177,2048,2048
1865,5180,2048,2048
1866,5183,2048,2048
1867,5186,2048,2048
1868,5188,2048,2048
1869,5191,2048,2048
1870,5194,2048,2048
1871,5197,2048,2048
1872,5200,2048,2048
1873,5202,2048,2048
1874,5205,2048,2048
1875,5208,2048,2048
1876,5211,2048,2048
1877,5213,2048,2048
1878,5216,2048,2048
1879,5219,2048,2048
1880,5222,2048,2048
1881,5225,2048,2048
1882,5227,2048,2048
1883,5230,2048,2048
1884,5233,2048,2048
1885,5236,2048,2048
1886,5238,2048,2048
1887,5241,2048,2048
1888,5244,2048,2048
1889,5247,2048,2048
1890,5250,2048,2048
1891,5252,2048,2048
1892,5255,2048,2048
1893,5258,2048,2048
1894,5261,2046,2046
1895,5263,2039,2039
1896,5266,2030,2030
1897,5269,2020,2020
1898,5272,2030,2030
1899,5275,2077,2077
1900,5277,2160,2160
1901,5280,2270,2270
1902,5283,2396,2396
1903,5286,2520,2520
1904,5288,2613,2613
1905,5291,2648,2648
1906,5294,2613,2613
1907,5297,2519,2519
1908,5300,2394,2394
1909,5302,2266,2266
1910,5305,2152,2152
1911,5308,2056,2056
1912,5311,1979,1979
1913,5313,1925,1925
1914,5316,1898,1898
1915,5319,1912,1912
1916,5322,1947,1947
1917,5325,1986,1986
1918,5327,2017,2017
1919,5330,2035,2035
1920,5333,2044,2044
1921,5336,2048,2048
1922,5338,2048,2048
1923,5341,2048,2048
1924,5344,2048,2048
1925,5347,2048,2048
1926,5350,2048,2048
1927,5352,2048,2048
1928,5355,2048,2048
1929,5358,2048,2048
1930,5361,2048,2048
1931,5363,2048,2048
1932,5366,2048,2048
1933,5369,2048,2048
1934,5372,2048,2048
1935,5375,2048,2048
1936,5377,2048,2048
1937,5380,2048,2048
1938,5383,2048,2048
1939,5386,2048,2048
1940,5388,2048,2048
1941,5391,2048,2048
1942,5394,2048,2048
1943,5397,2048,2048
1944,5400,2048,2048
1945,5402,2048,2048
1946,5405,2048,2048
1947,5408,2048,2048
1948,5411,2048,2048
1949,5413,2048,2048
1950,5416,2048,2048
1951,5419,2048,2048
1952,5422,2048,2048
1953,5425,2048,2048
1954,5427,2048,2048
1955,5430,2048,2048
1956,5433,2048,2048
1957,5436,2048,2048
1958,5438,2048,2048
1959,5441,2049,2049
1960,5444,2049,2049
1961,5447,2050,2050
1962,5450,2051,2051
1963,5452,2052,2052
1964,5455,2053,2053
1965,5458,2055,2055
1966,5461,2057,2057
1967,5463,2060,2060
1968,5466,2063,2063
1969,5469,2067,2067
1970,5472,2072,2072
1971,5475,2078,2078
1972,5477,2084,2084
1973,5480,2091,2091
1974,5483,2099,2099
1975,5486,2107,2107
1976,5488,2115,2115
1977,5491,2123,2123
1978,5494,2131,2131
1979,5497,2139,2139
1980,5500,2145,2145
1981,5502,2151,2151
1982,5505,2155,2155
1983,5508,2157,2157
1984,5511,2158,2158
1985,5513,2157,2157
1986,5516,2155,2155
1987,5519,2151,2151
1988,5522,2145,2145
1989,5525,2139,2139
1990,5527,2131,2131
1991,5530,2123,2123
1992,5533,2115,2115
1993,5536,2107,2107
1994,5538,2099,2099
1995,5541,2091,2091
1996,5544,2084,2084
1997,5547,2078,2078
1998,5550,2072,2072
1999,5552,2067,2067
2000,5555,2063,2063
2001,5558,2060,2060
2002,5561,2057,2057
2003,5563,2055,2055
2004,5566,2053,2053
2005,5569,2052,2052
2006,5572,2051,2051
2007,5575,2050,2050
2008,5577,2049,2049
2009,5580,2048,2048
2010,5583,2048,2048
2011,5586,2048,2048
2012,5588,2048,2048
2013,5591,2048,2048
2014,5594,2048,2048
2015,5597,2048,2048
2016,5600,2048,2048
2017,5602,2048,2048
2018,5605,2048,2048
2019,5608,2048,2048
2020,5611,2048,2048
2021,5613,2048,2048
2022,5616,2048,2048
2023,5619,2048,2048
2024,5622,2048,2048
2025,5625,2048,2048
2026,5627,2048,2048
2027,5630,2048,2048
2028,5633,2048,2048
2029,5636,2048,2048
2030,5638,2048,2048
2031,5641,2048,2048
2032,5644,2048,2048
2033,5647,2048,2048
2034,5650,2048,2048
2035,5652,2048,2048
2036,5655,2048,2048
2037,5658,2048,2048
2038,5661,2048,2048
2039,5663,2048,2048
2040,5666,2048,2048
2041,5669,2048,2048
2042,5672,2048,2048
2043,5675,2048,2048
2044,5677,2048,2048
2045,5680,2048,2048
2046,5683,2048,2048
2047,5686,2048,2048
2048,5688,2048,2048
2049,5691,2048,2048
2050,5694,2048,2048
2051,5697,2048,2048
2052,5700,2048,2048
2053,5702,2048,2048
2054,5705,2048,2048
2055,5708,2048,2048
2056,5711,2048,2048
2057,5713,2048,2048
2058,5716,2048,2048
2059,5719,2048,2048
2060,5722,2048,2048
2061,5725,2048,2048
2062,5727,2048,2048
2063,5730,2048,2048
2064,5733,2048,2048
2065,5736,2048,2048
2066,5738,2048,2048
2067,5741,2048,2048
2068,5744,2048,2048
2069,5747,2048,2048
2070,5750,2048,2048
2071,5752,2048,2048
2072,5755,2048,2048
2073,5758,2048,2048
2074,5761,2048,2048
2075,5763,2048,2048
2076,5766,2048,2048
2077,5769,2048,2048
2078,5772,2048,2048
2079,5775,2048,2048
2080,5777,2054,2054
2081,5780,2057,2057
2082,5783,2011,2011
2083,5786,2017,2017
2084,5788,2024,2024
2085,5791,2034,2034
2086,5794,2047,2047
2087,5797,2063,2063
2088,5800,2083,2083
2089,5802,2108,2108
2090,5805,2138,2138
2091,5808,2173,2173
2092,5811,2264,2264
2093,5813,2310,2310
2094,5816,2361,2361
2095,5819,2417,2417
2096,5822,2475,2475
2097,5825,2535,2535
2098,5827,2591,2591
2099,5830,2647,2647
2100,5833,2698,2698
2101,5836,2742,2742
2102,5838,2777,2777
2103,5841,2801,2801
2104,5844,2812,2812
2105,5847,2809,2809
2106,5850,2791,2791
2107,5852,2759,2759
2108,5855,2713,2713
2109,5858,2654,2654
2110,5861,2584,2584
2111,5863,2504,2504
2112,5866,2416,2416
2113,5869,2324,2324
2114,5872,2229,2229
2115,5875,2133,2133
2116,5877,2038,2038
2117,5880,1946,1946
2118,5883,1860,1860
2119,5886,1780,1780
2120,5888,1708,1708
2121,5891,1644,1644
2122,5894,1590,1590
2123,5897,1546,1546
2124,5900,1511,1511
2125,5902,1488,1488
2126,5905,1474,1474
2127,5908,1471,1471
2128,5911,1476,1476
2129,5913,1490,1490
2130,5916,1504,1504
2131,5919,1534,1534
2132,5922,1568,1568
2133,5925,1605,1605
2134,5927,1644,1644
2135,5930,1684,1684
2136,5933,1724,1724
2137,5936,1764,1764
2138,5938,1801,1801
2139,5941,1837,1837
2140,5944,1869,1869
2141,5947,1898,1898
2142,5950,1924,1924
2143,5952,1947,1947
2144,5955,1967,1967
2145,5958,1983,1983
2146,5961,1997,1997
2147,5963,2009,2009
2148,5966,2018,2018
2149,5969,2025,2025
2150,5972,2031,2031
2151,5975,2035,2035
2152,5977,2039,2039
2153,5980,2041,2041
2154,5983,2048,2048
2155,5986,2048,2048
2156,5988,2048,2048
2157,5991,2048,2048
2158,5994,2048,2048
2159,5997,2047,2047
2160,6000,2046,2046
2161,6002,2046,2046
2162,6005,2044,2044
2163,6008,2043,2043
2164,6011,2041,2041
2165,6013,2039,2039
2166,6016,2036,2036
2167,6019,2032,2032
2168,6022,2027,2027
2169,6025,2022,2022
2170,6027,2015,2015
2171,6030,2007,2007
2172,6033,1999,1999
2173,6036,1989,1989
2174,6038,1979,1979
2175,6041,1968,1968
2176,6044,1957,1957
2177,6047,1945,1945
2178,6050,1934,1934
2179,6052,1924,1924
2180,6055,1915,1915
2181,6058,1908,1908
2182,6061,1903,1903
2183,6063,1899,1899
2184,6066,1898,1898
2185,6069,1899,1899
2186,6072,1903,1903
2187,6075,1908,1908
2188,6077,1915,1915
2189,6080,1924,1924
2190,6083,1934,1934
2191,6086,1945,1945
2192,6088,1957,1957
2193,6091,1968,1968
2194,6094,1979,1979
2195,6097,1989,1989
2196,6100,1999,1999
2197,6102,2007,2007
2198,6105,2015,2015
2199,6108,2022,2022
2200,6111,2027,2027
2201,6113,2032,2032
2202,6116,2036,2036
2203,6119,2039,2039
2204,6122,2041,2041
2205,6125,2043,2043
2206,6127,2044,2044
2207,6130,2046,2046
2208,6133,2048,2048
2209,6136,2048,2048
2210,6138,2048,2048
2211,6141,2048,2048
2212,6144,2048,2048
2213,6147,2048,2048
2214,6150,2048,2048
2215,6152,2048,2048
2216,6155,2048,2048
2217,6158,2048,2048
2218,6161,2048,2048
2219,6163,2048,2048
2220,6166,2048,2048
2221,6169,2048,2048
2222,6172,2048,2048
2223,6175,2048,2048
2224,6177,2048,2048
2225,6180,2048,2048
2226,6183,2048,2048
2227,6186,2048,2048
2228,6188,2048,2048
2229,6191,2048,2048
2230,6194,2048,2048
2231,6197,2048,2048
2232,6200,2048,2048
2233,6202,2048,2048
2234,6205,2048,2048
2235,6208,2048,2048
2236,6211,2048,2048
2237,6213,2048,2048
2238,6216,2048,2048
2239,6219,2048,2048
2240,6222,2048,2048
2241,6225,2048,2048
2242,6227,2048,2048
2243,6230,2048,2048
2244,6233,2048,2048
2245,6236,2048,2048
2246,6238,2048,2048
2247,6241,2048,2048
2248,6244,2048,2048
2249,6247,2048,2048
2250,6250,2048,2048
2251,6252,2048,2048
2252,6255,2048,2048
2253,6258,2048,2048
2254,6261,2048,2048
2255,6263,2048,2048
2256,6266,2048,2048
2257,6269,2048,2048
2258,6272,2048,2048
2259,6275,2048,2048
2260,6277,2048,2048
2261,6280,2048,2048
2262,6283,2048,2048
2263,6286,2048,2048
2264,6288,2048,2048
2265,6291,2048,2048
2266,6294,2048,2048
2267,6297,2048,2048
2268,6300,2048,2048
2269,6302,2048,2048
2270,6305,2048,2048
2271,6308,2048,2048
2272,6311,2048,2048
2273,6313,2048,2048
2274,6316,2048,2048
2275,6319,2048,2048
2276,6322,2048,2048
2277,6325,2048,2048
2278,6327,2048,2048
2279,6330,2048,2048
2280,6333,2048,2048
2281,6336,2048,2048
2282,6338,2048,2048
2283,6341,2048,2048
2284,6344,2048,2048
2285,6347,2048,2048
2286,6350,2048,2048
2287,6352,2048,2048
2288,6355,2048,2048
2289,6358,2048,2048
2290,6361,2048,2048
2291,6363,2048,2048
2292,6366,2048,2048
2293,6369,2048,2048
2294,6372,2048,2048
2295,6375,2048,2048
2296,6377,2048,2048
2297,6380,2048,2048
2298,6383,2048,2048
2299,6386,2048,2048
2300,6388,2048,2048
2301,6391,2048,2048
2302,6394,2048,2048
2303,6397,2048,2048
2304,6400,2048,2048
2305,6402,2048,2048
2306,6405,2048,2048
2307,6408,2048,2048
2308,6411,2048,2048
2309,6413,2048,2048
2310,6416,2048,2048
2311,6419,2048,2048
2312,6422,2048,2048
2313,6425,2048,2048
2314,6427,2048,2048
2315,6430,2048,2048
2316,6433,2048,2048
2317,6436,2048,2048
2318,6438,2048,2048
2319,6441,2048,2048
2320,6444,2048,2048
2321,6447,2048,2048
2322,6450,2048,2048
2323,6452,2048,2048
2324,6455,2048,2048
2325,6458,2048,2048
2326,6461,2048,2048
2327,6463,2048,2048
2328,6466,2048,2048
2329,6469,2048,2048
2330,6472,2048,2048
2331,6475,2048,2048
2332,6477,2048,2048
2333,6480,2048,2048
2334,6483,2048,2048
2335,6486,2048,2048
2336,6488,2048,2048
2337,6491,2048,2048
2338,6494,2048,2048
2339,6497,2048,2048
2340,6500,2048,2048
2341,6502,2048,2048
2342,6505,2048,2048
2343,6508,2048,2048
2344,6511,2048,2048
2345,6513,2048,2048
2346,6516,2048,2048
2347,6519,2048,2048
2348,6522,2048,2048
2349,6525,2048,2048
2350,6527,2048,2048
2351,6530,2048,2048
2352,6533,2048,2048
2353,6536,2048,2048
2354,6538,2048,2048
2355,6541,2048,2048
2356,6544,2048,2048
2357,6547,2048,2048
2358,6550,2048,2048
2359,6552,2048,2048
2360,6555,2048,2048
2361,6558,2048,2048
2362,6561,2048,2048
2363,6563,2048,2048
2364,6566,2048,2048
2365,6569,2048,2048
2366,6572,2048,2048
2367,6575,2048,2048
2368,6577,2048,2048
2369,6580,2048,2048
2370,6583,2048,2048
2371,6586,2048,2048
2372,6588,2048,2048
2373,6591,2048,2048
2374,6594,2048,2048
2375,6597,2048,2048
2376,6600,2048,2048
2377,6602,2048,2048
2378,6605,2048,2048
2379,6608,2048,2048
2380,6611,2048,2048
2381,6613,2048,2048
2382,6616,2048,2048
2383,6619,2048,2048
2384,6622,2048,2048
2385,6625,2048,2048
2386,6627,2048,2048
2387,6630,2048,2048
2388,6633,2048,2048
2389,6636,2048,2048
2390,6638,2048,2048
2391,6641,2048,2048
2392,6644,2048,2048
2393,6647,2048,2048
2394,6650,2048,2048
2395,6652,2048,2048
2396,6655,2048,2048
2397,6658,2048,2048
2398,6661,2048,2048
2399,6663,2048,2048
2400,6666,2048,2048
2401,6669,2048,2048
2402,6672,2048,2048
2403,6675,2048,2048
2404,6677,2048,2048
2405,6680,2048,2048
2406,6683,2048,2048
2407,6686,2048,2048
2408,6688,2048,2048
2409,6691,2048,2048
2410,6694,2048,2048
2411,6697,2048,2048
2412,6700,2048,2048
2413,6702,2048,2048
2414,6705,2048,2048
2415,6708,2048,2048
2416,6711,2048,2048
2417,6713,2048,2048
2418,6716,2048,2048
2419,6719,2048,2048
2420,6722,2048,2048
2421,6725,2048,2048
2422,6727,2048,2048
2423,6730,2048,2048
2424,6733,2048,2048
2425,6736,2048,2048
2426,6738,2048,2048
2427,6741,2048,2048
2428,6744,2048,2048
2429,6747,2048,2048
2430,6750,2048,2048
2431,6752,2048,2048
2432,6755,2048,2048
2433,6758,2048,2048
2434,6761,2048,2048
2435,6763,2048,2048
2436,6766,2048,2048
2437,6769,2048,2048
2438,6772,2048,2048
2439,6775,2048,2048
2440,6777,2048,2048
2441,6780,2048,2048
2442,6783,2048,2048
2443,6786,2048,2048
2444,6788,2048,2048
2445,6791,2049,2049
2446,6794,2049,2049
2447,6797,2050,2050
2448,6800,2052,2052
2449,6802,2054,2054
2450,6805,2057,2057
2451,6808,2061,2061
2452,6811,2066,2066
2453,6813,2072,2072
2454,6816,2078,2078
2455,6819,2085,2085
2456,6822,2092,2092
2457,6825,2099,2099
2458,6827,2104,2104
2459,6830,2107,2107
2460,6833,2108,2108
2461,6836,2107,2107
2462,6838,2104,2104
2463,6841,2099,2099
2464,6844,2092,2092
2465,6847,2085,2085
2466,6850,2078,2078
2467,6852,2072,2072
2468,6855,2066,2066
2469,6858,2061,2061
2470,6861,2057,2057
2471,6863,2054,2054
2472,6866,2052,2052
2473,6869,2050,2050
2474,6872,2049,2049
2475,6875,2049,2049
2476,6877,2048,2048
2477,6880,2048,2048
2478,6883,2048,2048
2479,6886,2048,2048
2480,6888,2048,2048
2481,6891,2048,2048
2482,6894,2048,2048
2483,6897,2048,2048
2484,6900,2048,2048
2485,6902,2048,2048
2486,6905,2048,2048
2487,6908,2048,2048
2488,6911,2048,2048
2489,6913,2048,2048
2490,6916,2048,2048
2491,6919,2048,2048
2492,6922,2048,2048
2493,6925,2048,2048
2494,6927,2048,2048
2495,6930,2048,2048
2496,6933,2048,2048
2497,6936,2048,2048
2498,6938,2048,2048
2499,6941,2048,2048
2500,6944,2048,2048
2501,6947,2048,2048
2502,6950,2048,2048
2503,6952,2048,2048
2504,6955,2048,2048
2505,6958,2048,2048
2506,6961,2046,2046
2507,6963,2039,2039
2508,6966,2030,2030
2509,6969,2020,2020
2510,6972,2030,2030
2511,6975,2077,2077
2512,6977,2160,2160
2513,6980,2270,2270
2514,6983,2396,2396
2515,6986,2520,2520
2516,6988,2613,2613
2517,6991,2648,2648
2518,6994,2613,2613
2519,6997,2519,2519
2520,7000,2394,2394
2521,7002,2266,2266
2522,7005,2152,2152
2523,7008,2056,2056
2524,7011,1979,1979
2525,7013,1925,1925
2526,7016,1898,1898
2527,7019,1912,1912
2528,7022,1947,1947
2529,7025,1986,1986
2530,7027,2017,2017
2531,7030,2035,2035
2532,7033,2044,2044
2533,7036,2048,2048
2534,7038,2048,2048
2535,7041,2048,2048
2536,7044,2048,2048
2537,7047,2048,2048
2538,7050,2048,2048
2539,7052,2048,2048
2540,7055,2048,2048
2541,7058,2048,2048
2542,7061,2048,2048
2543,7063,2048,2048
2544,7066,2048,2048
2545,7069,2048,2048
2546,7072,2048,2048
2547,7075,2048,2048
2548,7077,2048,2048
2549,7080,2048,2048
2550,7083,2048,2048
2551,7086,2048,2048
2552,7088,2048,2048
2553,7091,2048,2048
2554,7094,2048,2048
2555,7097,2048,2048
2556,7100,2048,2048
2557,7102,2048,2048
2558,7105,2048,2048
2559,7108,2048,2048
2560,7111,2048,2048
2561,7113,2048,2048
2562,7116,2048,2048
2563,7119,2048,2048
2564,7122,2048,2048
2565,7125,2048,2048
2566,7127,2048,2048
2567,7130,2048,2048
2568,7133,2048,2048
2569,7136,2048,2048
2570,7138,2048,2048
2571,7141,2049,2049
2572,7144,2049,2049
2573,7147,2050,2050
2574,7150,2051,2051
2575,7152,2052,2052
2576,7155,2053,2053
2577,7158,2055,2055
2578,7161,2057,2057
2579,7163,2060,2060
2580,7166,2063,2063
2581,7169,2067,2067
2582,7172,2072,2072
2583,7175,2078,2078
2584,7177,2084,2084
2585,7180,2091,2091
2586,7183,2099,2099
2587,7186,2107,2107
2588,7188,2115,2115
2589,7191,2123,2123
2590,7194,2131,2131
2591,7197,2139,2139
2592,7200,2145,2145
2593,7202,2151,2151
2594,7205,2155,2155
2595,7208,2157,2157
2596,7211,2158,2158
2597,7213,2157,2157
2598,7216,2155,2155
2599,7219,2151,2151
2600,7222,2145,2145
2601,7225,2139,2139
2602,7227,2131,2131
2603,7230,2123,2123
2604,7233,2115,2115
2605,7236,2107,2107
2606,7238,2099,2099
2607,7241,2091,2091
2608,7244,2084,2084
2609,7247,2078,2078
2610,7250,2072,2072
2611,7252,2067,2067
2612,7255,2063,2063
2613,7258,2060,2060
2614,7261,2057,2057
2615,7263,2055,2055
2616,7266,2053,2053
2617,7269,2052,2052
2618,7272,2051,2051
2619,7275,2050,2050
2620,7277,2049,2049
2621,7280,2048,2048
2622,7283,2048,2048
2623,7286,2048,2048
2624,7288,2048,2048
2625,7291,2048,2048
2626,7294,2048,2048
2627,7297,2048,2048
2628,7300,2048,2048
2629,7302,2048,2048
2630,7305,2048,2048
2631,7308,2048,2048
2632,7311,2048,2048
2633,7313,2048,2048
2634,7316,2048,2048
2635,7319,2048,2048
2636,7322,2048,2048
2637,7325,2048,2048
2638,7327,2048,2048
2639,7330,2048,2048
2640,7333,2048,2048
2641,7336,2048,2048
2642,7338,2048,2048
2643,7341,2048,2048
2644,7344,2048,2048
2645,7347,2048,2048
2646,7350,2048,2048
2647,7352,2048,2048
2648,7355,2048,2048
2649,7358,2048,2048
2650,7361,2048,2048
2651,7363,2048,2048
2652,7366,2048,2048
2653,7369,2048,2048
2654,7372,2048,2048
2655,7375,2048,2048
2656,7377,2048,2048
2657,7380,2048,2048
2658,7383,2048,2048
2659,7386,2048,2048
2660,7388,2048,2048
2661,7391,2048,2048
2662,7394,2048,2048
2663,7397,2048,2048
2664,7400,2048,2048
2665,7402,2048,2048
2666,7405,2048,2048
2667,7408,2048,2048
2668,7411,2048,2048
2669,7413,2048,2048
2670,7416,2048,2048
2671,7419,2048,2048
2672,7422,2048,2048
2673,7425,2048,2048
2674,7427,2048,2048
2675,7430,2048,2048
2676,7433,2048,2048
2677,7436,2048,2048
2678,7438,2048,2048
2679,7441,2048,2048
2680,7444,2048,2048
2681,7447,2048,2048
2682,7450,2048,2048
2683,7452,2048,2048
2684,7455,2048,2048
2685,7458,2048,2048
2686,7461,2048,2048
2687,7463,2048,2048
2688,7466,2048,2048
2689,7469,2048,2048
2690,7472,2048,2048
2691,7475,2048,2048
2692,7477,2048,2048
2693,7480,2048,2048
2694,7483,2048,2048
2695,7486,2048,2048
2696,7488,2048,2048
2697,7491,2048,2048
2698,7494,2048,2048
2699,7497,2048,2048
2700,7500,2048,2048
2701,7502,2048,2048
2702,7505,2048,2048
2703,7508,2048,2048
2704,7511,2048,2048
2705,7513,2048,2048
2706,7516,2048,2048
2707,7519,2048,2048
2708,7522,2048,2048
2709,7525,2048,2048
2710,7527,2048,2048
2711,7530,2048,2048
2712,7533,2048,2048
2713,7536,2048,2048
2714,7538,2048,2048
2715,7541,2048,2048
2716,7544,2048,2048
2717,7547,2048,2048
2718,7550,2048,2048
2719,7552,2048,2048
2720,7555,2048,2048
2721,7558,2048,2048
2722,7561,2048,2048
2723,7563,2048,2048
2724,7566,2048,2048
2725,7569,2048,2048
2726,7572,2048,2048
2727,7575,2048,2048
2728,7577,2048,2048
2729,7580,2048,2048
2730,7583,2048,2048
2731,7586,2048,2048
2732,7588,2048,2048
2733,7591,2048,2048
2734,7594,2048,2048
2735,7597,2048,2048
2736,7600,2048,2048
2737,7602,2048,2048
2738,7605,2048,2048
2739,7608,2048,2048
2740,7611,2048,2048
2741,7613,2048,2048
2742,7616,2048,2048
2743,7619,2048,2048
2744,7622,2048,2048
2745,7625,2049,2049
2746,7627,2049,2049
2747,7630,2050,2050
2748,7633,2052,2052
2749,7636,2054,2054
2750,7638,2057,2057
2751,7641,2061,2061
2752,7644,2066,2066
2753,7647,2072,2072
2754,7650,2078,2078
2755,7652,2085,2085
2756,7655,2092,2092
2757,7658,2099,2099
2758,7661,2104,2104
2759,7663,2107,2107
2760,7666,2108,2108
2761,7669,2107,2107
2762,7672,2104,2104
2763,7675,2099,2099
2764,7677,2092,2092
2765,7680,2085,2085
2766,7683,2078,2078
2767,7686,2072,2072
2768,7688,2066,2066
2769,7691,2061,2061
2770,7694,2057,2057
2771,7697,2054,2054
2772,7700,2052,2052
2773,7702,2050,2050
2774,7705,2049,2049
2775,7708,2049,2049
2776,7711,2048,2048
2777,7713,2048,2048
2778,7716,2048,2048
2779,7719,2048,2048
2780,7722,2048,2048
2781,7725,2048,2048
2782,7727,2048,2048
2783,7730,2048,2048
2784,7733,2048,2048
2785,7736,2048,2048
2786,7738,2048,2048
2787,7741,2048,2048
2788,7744,2048,2048
2789,7747,2048,2048
2790,7750,2048,2048
2791,7752,2048,2048
2792,7755,2048,2048
2793,7758,2048,2048
2794,7761,2048,2048
2795,7763,2048,2048
2796,7766,2048,2048
2797,7769,2048,2048
2798,7772,2048,2048
2799,7775,2048,2048
2800,7777,2048,2048
2801,7780,2048,2048
2802,7783,2048,2048
2803,7786,2048,2048
2804,7788,2048,2048
2805,7791,2048,2048
2806,7794,2046,2046
2807,7797,2039,2039
2808,7800,2030,2030
2809,7802,2020,2020
2810,7805,2030,2030
2811,7808,2077,2077
2812,7811,2160,2160
2813,7813,2270,2270
2814,7816,2396,2396
2815,7819,2520,2520
2816,7822,2613,2613
2817,7825,2648,2648
2818,7827,2613,2613
2819,7830,2519,2519
2820,7833,2394,2394
2821,7836,2266,2266
2822,7838,2152,2152
2823,7841,2056,2056
2824,7844,1979,1979
2825,7847,1925,1925
2826,7850,1898,1898
2827,7852,1912,1912
2828,7855,1947,1947
2829,7858,1986,1986
2830,7861,2017,2017
2831,7863,2035,2035
2832,7866,2044,2044
2833,7869,2048,2048
2834,7872,2048,2048
2835,7875,2048,2048
2836,7877,2048,2048
2837,7880,2048,2048
2838,7883,2048,2048
2839,7886,2048,2048
2840,7888,2048,2048
2841,7891,2048,2048
2842,7894,2048,2048
2843,7897,2048,2048
2844,7900,2048,2048
2845,7902,2048,2048
2846,7905,2048,2048
2847,7908,2048,2048
2848,7911,2048,2048
2849,7913,2048,2048
2850,7916,2048,2048
2851,7919,2048,2048
2852,7922,2048,2048
2853,7925,2048,2048
2854,7927,2048,2048
2855,7930,2048,2048
2856,7933,2048,2048
2857,7936,2048,2048
2858,7938,2048,2048
2859,7941,2048,2048
2860,7944,2048,2048
2861,7947,2048,2048
2862,7950,2048,2048
2863,7952,2048,2048
2864,7955,2048,2048
2865,7958,2048,2048
2866,7961,2048,2048
2867,7963,2048,2048
2868,7966,2048,2048
2869,7969,2048,2048
2870,7972,2048,2048
2871,7975,2049,2049
2872,7977,2049,2049
2873,7980,2050,2050
2874,7983,2051,2051
2875,7986,2052,2052
2876,7988,2053,2053
2877,7991,2055,2055
2878,7994,2057,2057
2879,7997,2060,2060
2880,8000,2063,2063
2881,8002,2067,2067
2882,8005,2072,2072
2883,8008,2078,2078
2884,8011,2084,2084
2885,8013,2091,2091
2886,8016,2099,2099
2887,8019,2107,2107
2888,8022,2115,2115
2889,8025,2123,2123
2890,8027,2131,2131
2891,8030,2139,2139
2892,8033,2145,2145
2893,8036,2151,2151
2894,8038,2155,2155
2895,8041,2157,2157
2896,8044,2158,2158
2897,8047,2157,2157
2898,8050,2155,2155
2899,8052,2151,2151
2900,8055,2145,2145
2901,8058,2139,2139
2902,8061,2131,2131
2903,8063,2123,2123
2904,8066,2115,2115
2905,8069,2107,2107
2906,8072,2099,2099
2907,8075,2091,2091
2908,8077,2084,2084
2909,8080,2078,2078
2910,8083,2072,2072
2911,8086,2067,2067
2912,8088,2063,2063
2913,8091,2060,2060
2914,8094,2057,2057
2915,8097,2055,2055
2916,8100,2053,2053
2917,8102,2052,2052
2918,8105,2051,2051
2919,8108,2050,2050
2920,8111,2049,2049
2921,8113,2048,2048
2922,8116,2048,2048
2923,8119,2048,2048
2924,8122,2048,2048
2925,8125,2048,2048
2926,8127,2048,2048
2927,8130,2048,2048
2928,8133,2048,2048
2929,8136,2048,2048
2930,8138,2048,2048
2931,8141,2048,2048
2932,8144,2048,2048
2933,8147,2048,2048
2934,8150,2048,2048
2935,8152,2048,2048
2936,8155,2048,2048
2937,8158,2048,2048
2938,8161,2048,2048
2939,8163,2048,2048
2940,8166,2048,2048
2941,8169,2048,2048
2942,8172,2048,2048
2943,8175,2048,2048
2944,8177,2048,2048
2945,8180,2048,2048
2946,8183,2048,2048
2947,8186,2048,2048
2948,8188,2048,2048
2949,8191,2048,2048
2950,8194,2048,2048
2951,8197,2048,2048
2952,8200,2048,2048
2953,8202,2048,2048
2954,8205,2048,2048
2955,8208,2048,2048
2956,8211,2048,2048
2957,8213,2048,2048
2958,8216,2048,2048
2959,8219,2048,2048
2960,8222,2048,2048
2961,8225,2048,2048
2962,8227,2048,2048
2963,8230,2048,2048
2964,8233,2048,2048
2965,8236,2048,2048
2966,8238,2048,2048
2967,8241,2048,2048
2968,8244,2048,2048
2969,8247,2048,2048
2970,8250,2048,2048
2971,8252,2048,2048
2972,8255,2048,2048
2973,8258,2048,2048
2974,8261,2048,2048
2975,8263,2048,2048
2976,8266,2048,2048
2977,8269,2048,2048
2978,8272,2048,2048
2979,8275,2048,2048
2980,8277,2048,2048
2981,8280,2048,2048
2982,8283,2048,2048
2983,8286,2048,2048
2984,8288,2048,2048
2985,8291,2048,2048
2986,8294,2048,2048
2987,8297,2048,2048
2988,8300,2048,2048
2989,8302,2048,2048
2990,8305,2048,2048
2991,8308,2048,2048
2992,8311,2048,2048
2993,8313,2048,2048
2994,8316,2048,2048
2995,8319,2048,2048
2996,8322,2048,2048
2997,8325,2048,2048
2998,8327,2048,2048
2999,8330,2048,2048
3000,8333,2048,2048
3001,8336,2048,2048
3002,8338,2048,2048
3003,8341,2048,2048
3004,8344,2048,2048
3005,8347,2048,2048
3006,8350,2048,2048
3007,8352,2048,2048
3008,8355,2048,2048
3009,8358,2048,2048
3010,8361,2048,2048
3011,8363,2048,2048
3012,8366,2048,2048
3013,8369,2048,2048
3014,8372,2048,2048
3015,8375,2048,2048
3016,8377,2048,2048
3017,8380,2048,2048
3018,8383,2048,2048
3019,8386,2048,2048
3020,8388,2048,2048
3021,8391,2048,2048
3022,8394,2048,2048
3023,8397,2048,2048
3024,8400,2048,2048
3025,8402,2048,2048
3026,8405,2048,2048
3027,8408,2048,2048
3028,8411,2048,2048
3029,8413,2048,2048
3030,8416,2048,2048
3031,8419,2048,2048
3032,8422,2048,2048
3033,8425,2048,2048
3034,8427,2048,2048
3035,8430,2048,2048
3036,8433,2048,2048
3037,8436,2048,2048
3038,8438,2048,2048
3039,8441,2048,2048
3040,8444,2048,2048
3041,8447,2048,2048
3042,8450,2048,2048
3043,8452,2048,2048
3044,8455,2048,2048
3045,8458,2049,2049
3046,8461,2049,2049
3047,8463,2050,2050
3048,8466,2052,2052
3049,8469,2054,2054
3050,8472,2057,2057
3051,8475,2061,2061
3052,8477,2066,2066
3053,8480,2072,2072
3054,8483,2078,2078
3055,8486,2085,2085
3056,8488,2092,2092
3057,8491,2099,2099
3058,8494,2104,2104
3059,8497,2107,2107
3060,8500,2108,2108
3061,8502,2107,2107
3062,8505,2104,2104
3063,8508,2099,2099
3064,8511,2092,2092
3065,8513,2085,2085
3066,8516,2078,2078
3067,8519,2072,2072
3068,8522,2066,2066
3069,8525,2061,2061
3070,8527,2057,2057
3071,8530,2054,2054
3072,8533,2052,2052
3073,8536,2050,2050
3074,8538,2049,2049
3075,8541,2049,2049
3076,8544,2048,2048
3077,8547,2048,2048
3078,8550,2048,2048
3079,8552,2048,2048
3080,8555,2048,2048
3081,8558,2048,2048
3082,8561,2048,2048
3083,8563,2048,2048
3084,8566,2048,2048
3085,8569,2048,2048
3086,8572,2048,2048
3087,8575,2048,2048
3088,8577,2048,2048
3089,8580,2048,2048
3090,8583,2048,2048
3091,8586,2048,2048
3092,8588,2048,2048
3093,8591,2048,2048
3094,8594,2048,2048
3095,8597,2048,2048
3096,8600,2048,2048
3097,8602,2048,2048
3098,8605,2048,2048
3099,8608,2048,2048
3100,8611,2048,2048
3101,8613,2048,2048
3102,8616,2048,2048
3103,8619,2048,2048
3104,8622,2048,2048
3105,8625,2048,2048
3106,8627,2046,2046
3107,8630,2039,2039
3108,8633,2030,2030
3109,8636,2020,2020
3110,8638,2030,2030
3111,8641,2077,2077
3112,8644,2160,2160
3113,8647,2270,2270
3114,8650,2396,2396
3115,8652,2520,2520
3116,8655,2613,2613
3117,8658,2648,2648
3118,8661,2613,2613
3119,8663,2519,2519
3120,8666,2394,2394
3121,8669,2266,2266
3122,8672,2152,2152
3123,8675,2056,2056
3124,8677,1979,1979
3125,8680,1925,1925
3126,8683,1898,1898
3127,8686,1912,1912
3128,8688,1947,1947
3129,8691,1986,1986
3130,8694,2017,2017
3131,8697,2035,2035
3132,8700,2044,2044
3133,8702,2048,2048
3134,8705,2048,2048
3135,8708,2048,2048
3136,8711,2048,2048
3137,8713,2048,2048
3138,8716,2048,2048
3139,8719,2048,2048
3140,8722,2048,2048
3141,8725,2048,2048
3142,8727,2048,2048
3143,8730,2048,2048
3144,8733,2048,2048
3145,8736,2048,2048
3146,8738,2048,2048
3147,8741,2048,2048
3148,8744,2048,2048
3149,8747,2048,2048
3150,8750,2048,2048
3151,8752,2048,2048
3152,8755,2048,2048
3153,8758,2048,2048
3154,8761,2048,2048
3155,8763,2048,2048
3156,8766,2048,2048
3157,8769,2048,2048
3158,8772,2048,2048
3159,8775,2048,2048
3160,8777,2048,2048
3161,8780,2048,2048
3162,8783,2048,2048
3163,8786,2048,2048
3164,8788,2048,2048
3165,8791,2048,2048
3166,8794,2048,2048
3167,8797,2048,2048
3168,8800,2048,2048
3169,8802,2048,2048
3170,8805,2048,2048
3171,8808,2049,2049
3172,8811,2049,2049
3173,8813,2050,2050
3174,8816,2051,2051
3175,8819,2052,2052
3176,8822,2053,2053
3177,8825,2055,2055
3178,8827,2057,2057
3179,8830,2060,2060
3180,8833,2063,2063
3181,8836,2067,2067
3182,8838,2072,2072
3183,8841,2078,2078
3184,8844,2084,2084
3185,8847,2091,2091
3186,8850,2099,2099
3187,8852,2107,2107
3188,8855,2115,2115
3189,8858,2123,2123
3190,8861,2131,2131
3191,8863,2139,2139
3192,8866,2145,2145
3193,8869,2151,2151
3194,8872,2155,2155
3195,8875,2157,2157
3196,8877,2158,2158
3197,8880,2157,2157
3198,8883,2155,2155
3199,8886,2151,2151
3200,8888,2145,2145
3201,8891,2139,2139
3202,8894,2131,2131
3203,8897,2123,2123
3204,8900,2115,2115
3205,8902,2107,2107
3206,8905,2099,2099
3207,8908,2091,2091
3208,8911,2084,2084
3209,8913,2078,2078
3210,8916,2072,2072
3211,8919,2067,2067
3212,8922,2063,2063
3213,8925,2060,2060
3214,8927,2057,2057
3215,8930,2055,2055
3216,8933,2053,2053
3217,8936,2052,2052
3218,8938,2051,2051
3219,8941,2050,2050
3220,8944,2049,2049
3221,8947,2048,2048
3222,8950,2048,2048
3223,8952,2048,2048
3224,8955,2048,2048
3225,8958,2048,2048
3226,8961,2048,2048
3227,8963,2048,2048
3228,8966,2048,2048
3229,8969,2048,2048
3230,8972,2048,2048
3231,8975,2048,2048
3232,8977,2048,2048
3233,8980,2048,2048
3234,8983,2048,2048
3235,8986,2048,2048
3236,8988,2048,2048
3237,8991,2048,2048
3238,8994,2048,2048
3239,8997,2048,2048
3240,9000,2048,2048
3241,9002,2048,2048
3242,9005,2048,2048
3243,9008,2048,2048
3244,9011,2048,2048
3245,9013,2048,2048
3246,9016,2048,2048
3247,9019,2048,2048
3248,9022,2048,2048
3249,9025,2048,2048
3250,9027,2048,2048
3251,9030,2048,2048
3252,9033,2048,2048
3253,9036,2048,2048
3254,9038,2048,2048
3255,9041,2048,2048
3256,9044,2048,2048
3257,9047,2048,2048
3258,9050,2048,2048
3259,9052,2048,2048
3260,9055,2048,2048
3261,9058,2048,2048
3262,9061,2048,2048
3263,9063,2048,2048
3264,9066,2048,2048
3265,9069,2048,2048
3266,9072,2048,2048
3267,9075,2048,2048
3268,9077,2048,2048
3269,9080,2048,2048
3270,9083,2048,2048
3271,9086,2048,2048
3272,9088,2048,2048
3273,9091,2048,2048
3274,9094,2048,2048
3275,9097,2048,2048
3276,9100,2048,2048
3277,9102,2048,2048
3278,9105,2048,2048
3279,9108,2048,2048
3280,9111,2048,2048
3281,9113,2048,2048
3282,9116,2048,2048
3283,9119,2048,2048
3284,9122,2048,2048
3285,9125,2048,2048
3286,9127,2048,2048
3287,9130,2048,2048
3288,9133,2048,2048
3289,9136,2048,2048
3290,9138,2048,2048
3291,9141,2048,2048
3292,9144,2054,2054
3293,9147,2057,2057
3294,9150,2011,2011
3295,9152,2017,2017
3296,9155,2024,2024
3297,9158,2034,2034
3298,9161,2047,2047
3299,9163,2063,2063
3300,9166,2083,2083
3301,9169,2108,2108
3302,9172,2138,2138
3303,9175,2173,2173
3304,9177,2264,2264
3305,9180,2310,2310
3306,9183,2361,2361
3307,9186,2417,2417
3308,9188,2475,2475
3309,9191,2535,2535
3310,9194,2591,2591
3311,9197,2647,2647
3312,9200,2698,2698
3313,9202,2742,2742
3314,9205,2777,2777
3315,9208,2801,2801
3316,9211,2812,2812
3317,9213,2809,2809
3318,9216,2791,2791
3319,9219,2759,2759
3320,9222,2713,2713
3321,9225,2654,2654
3322,9227,2584,2584
3323,9230,2504,2504
3324,9233,2416,2416
3325,9236,2324,2324
3326,9238,2229,2229
3327,9241,2133,2133
3328,9244,2038,2038
3329,9247,1946,1946
3330,9250,1860,1860
3331,9252,1780,1780
3332,9255,1708,1708
3333,9258,1644,1644
3334,9261,1590,1590
3335,9263,1546,1546
3336,9266,1511,1511
3337,9269,1488,1488
3338,9272,1474,1474
3339,9275,1471,1471
3340,9277,1476,1476
3341,9280,1490,1490
3342,9283,1504,1504
3343,9286,1534,1534
3344,9288,1568,1568
3345,9291,1605,1605
3346,9294,1644,1644
3347,9297,1684,1684
3348,9300,1724,1724
3349,9302,1764,1764
3350,9305,1801,1801
3351,9308,1837,1837
3352,9311,1869,1869
3353,9313,1898,1898
3354,9316,1924,1924
3355,9319,1947,1947
3356,9322,1967,1967
3357,9325,1983,1983
3358,9327,1997,1997
3359,9330,2009,2009
3360,9333,2018,2018
3361,9336,2025,2025
3362,9338,2031,2031
3363,9341,2035,2035
3364,9344,2039,2039
3365,9347,2041,2041
3366,9350,2048,2048
3367,9352,2048,2048
3368,9355,2048,2048
3369,9358,2048,2048
3370,9361,2048,2048
3371,9363,2047,2047
3372,9366,2046,2046
3373,9369,2046,2046
3374,9372,2044,2044
3375,9375,2043,2043
3376,9377,2041,2041
3377,9380,2039,2039
3378,9383,2036,2036
3379,9386,2032,2032
3380,9388,2027,2027
3381,9391,2022,2022
3382,9394,2015,2015
3383,9397,2007,2007
3384,9400,1999,1999
3385,9402,1989,1989
3386,9405,1979,1979
3387,9408,1968,1968
3388,9411,1957,1957
3389,9413,1945,1945
3390,9416,1934,1934
3391,9419,1924,1924
3392,9422,1915,1915
3393,9425,1908,1908
3394,9427,1903,1903
3395,9430,1899,1899
3396,9433,1898,1898
3397,9436,1899,1899
3398,9438,1903,1903
3399,9441,1908,1908
3400,9444,1915,1915
3401,9447,1924,1924
3402,9450,1934,1934
3403,9452,1945,1945
3404,9455,1957,1957
3405,9458,1968,1968
3406,9461,1979,1979
3407,9463,1989,1989
3408,9466,1999,1999
3409,9469,2007,2007
3410,9472,2015,2015
3411,9475,2022,2022
3412,9477,2027,2027
3413,9480,2032,2032
3414,9483,2036,2036
3415,9486,2039,2039
3416,9488,2041,2041
3417,9491,2043,2043
3418,9494,2044,2044
3419,9497,2046,2046
3420,9500,2048,2048
3421,9502,2048,2048
3422,9505,2048,2048
3423,9508,2048,2048
3424,9511,2048,2048
3425,9513,2048,2048
3426,9516,2048,2048
3427,9519,2048,2048
3428,9522,2048,2048
3429,9525,2048,2048
3430,9527,2048,2048
3431,9530,2048,2048
3432,9533,2048,2048
3433,9536,2048,2048
3434,9538,2048,2048
3435,9541,2048,2048
3436,9544,2048,2048
3437,9547,2048,2048
3438,9550,2048,2048
3439,9552,2048,2048
3440,9555,2048,2048
3441,9558,2048,2048
3442,9561,2048,2048
3443,9563,2048,2048
3444,9566,2048,2048
3445,9569,2048,2048
3446,9572,2048,2048
3447,9575,2048,2048
3448,9577,2048,2048
3449,9580,2048,2048
3450,9583,2048,2048
3451,9586,2048,2048
3452,9588,2048,2048
3453,9591,2048,2048
3454,9594,2048,2048
3455,9597,2048,2048
3456,9600,2048,2048
3457,9602,2048,2048
3458,9605,2048,2048
3459,9608,2048,2048
3460,9611,2048,2048
3461,9613,2048,2048
3462,9616,2048,2048
3463,9619,2048,2048
3464,9622,2048,2048
3465,9625,2048,2048
3466,9627,2048,2048
3467,9630,2048,2048
3468,9633,2048,2048
3469,9636,2048,2048
3470,9638,2048,2048
3471,9641,2048,2048
3472,9644,2048,2048
3473,9647,2048,2048
3474,9650,2048,2048
3475,9652,2048,2048
3476,9655,2048,2048
3477,9658,2048,2048
3478,9661,2048,2048
3479,9663,2048,2048
3480,9666,2048,2048
3481,9669,2048,2048
3482,9672,2048,2048
3483,9675,2048,2048
3484,9677,2048,2048
3485,9680,2048,2048
3486,9683,2048,2048
3487,9686,2048,2048
3488,9688,2048,2048
3489,9691,2048,2048
3490,9694,2048,2048
3491,9697,2048,2048
3492,9700,2048,2048
3493,9702,2048,2048
3494,9705,2048,2048
3495,9708,2048,2048
3496,9711,2048,2048
3497,9713,2048,2048
3498,9716,2048,2048
3499,9719,2048,2048
3500,9722,2048,2048
3501,9725,2048,2048
3502,9727,2048,2048
3503,9730,2048,2048
3504,9733,2048,2048
3505,9736,2048,2048
3506,9738,2048,2048
3507,9741,2048,2048
3508,9744,2048,2048
3509,9747,2048,2048
3510,9750,2048,2048
3511,9752,2048,2048
3512,9755,2048,2048
3513,9758,2048,2048
3514,9761,2048,2048
3515,9763,2048,2048
3516,9766,2048,2048
3517,9769,2048,2048
3518,9772,2048,2048
3519,9775,2048,2048
3520,9777,2048,2048
3521,9780,2048,2048
3522,9783,2048,2048
3523,9786,2048,2048
3524,9788,2048,2048
3525,9791,2048,2048
3526,9794,2048,2048
3527,9797,2048,2048
3528,9800,2048,2048
3529,9802,2048,2048
3530,9805,2048,2048
3531,9808,2048,2048
3532,9811,2048,2048
3533,9813,2048,2048
3534,9816,2048,2048
3535,9819,2048,2048
3536,9822,2048,2048
3537,9825,2048,2048
3538,9827,2048,2048
3539,9830,2048,2048
3540,9833,2048,2048
3541,9836,2048,2048
3542,9838,2048,2048
3543,9841,2048,2048
3544,9844,2048,2048
3545,9847,2048,2048
3546,9850,2048,2048
3547,9852,2048,2048
3548,9855,2048,2048
3549,9858,2048,2048
3550,9861,2048,2048
3551,9863,2048,2048
3552,9866,2048,2048
3553,9869,2048,2048
3554,9872,2048,2048
3555,9875,2048,2048
3556,9877,2048,2048
3557,9880,2048,2048
3558,9883,2048,2048
3559,9886,2048,2048
3560,9888,2048,2048
3561,9891,2048,2048
3562,9894,2048,2048
3563,9897,2048,2048
3564,9900,2048,2048
3565,9902,2048,2048
3566,9905,2048,2048
3567,9908,2048,2048
3568,9911,2048,2048
3569,9913,2048,2048
3570,9916,2048,2048
3571,9919,2048,2048
3572,9922,2048,2048
3573,9925,2048,2048
3574,9927,2048,2048
3575,9930,2048,2048
3576,9933,2048,2048
3577,9936,2048,2048
3578,9938,2048,2048
3579,9941,2048,2048
3580,9944,2048,2048
3581,9947,2048,2048
3582,9950,2048,2048
3583,9952,2048,2048
3584,9955,2048,2048
3585,9958,2048,2048
3586,9961,2048,2048
3587,9963,2048,2048
3588,9966,2048,2048
3589,9969,2048,2048
3590,9972,2048,2048
3591,9975,2048,2048
3592,9977,2048,2048
3593,9980,2048,2048
3594,9983,2048,2048
3595,9986,2048,2048
3596,9988,2048,2048
3597,9991,2048,2048
3598,9994,2048,2048
3599,9997,2048,2048
3600,10000,2048,2048
3601,10002,2048,2048
3602,10005,2048,2048
3603,10008,2048,2048
3604,10011,2048,2048
3605,10013,2048,2048
3606,10016,2048,2048
3607,10019,2048,2048
3608,10022,2048,2048
3609,10025,2048,2048
3610,10027,2048,2048
3611,10030,2048,2048
3612,10033,2048,2048
3613,10036,2048,2048
3614,10038,2048,2048
3615,10041,2048,2048
3616,10044,2048,2048
3617,10047,2048,2048
3618,10050,2048,2048
3619,10052,2048,2048
3620,10055,2048,2048
3621,10058,2048,2048
3622,10061,2048,2048
3623,10063,2048,2048
3624,10066,2048,2048
3625,10069,2048,2048
3626,10072,2048,2048
3627,10075,2048,2048
3628,10077,2048,2048
3629,10080,2048,2048
3630,10083,2048,2048
3631,10086,2048,2048
3632,10088,2048,2048
3633,10091,2048,2048
3634,10094,2048,2048
3635,10097,2048,2048
3636,10100,2048,2048
3637,10102,2048,2048
3638,10105,2048,2048
3639,10108,2048,2048
3640,10111,2048,2048
3641,10113,2048,2048
3642,10116,2048,2048
3643,10119,2048,2048
3644,10122,2048,2048
3645,10125,2048,2048
3646,10127,2048,2048
3647,10130,2048,2048
3648,10133,2048,2048
3649,10136,2048,2048
3650,10138,2048,2048
3651,10141,2048,2048
3652,10144,2048,2048
3653,10147,2048,2048
3654,10150,2048,2048
3655,10152,2048,2048
3656,10155,2048,2048
3657,10158,2049,2049
3658,10161,2049,2049
3659,10163,2050,2050
3660,10166,2052,2052
3661,10169,2054,2054
3662,10172,2057,2057
3663,10175,2061,2061
3664,10177,2066,2066
3665,10180,2072,2072
3666,10183,2078,2078
3667,10186,2085,2085
3668,10188,2092,2092
3669,10191,2099,2099
3670,10194,2104,2104
3671,10197,2107,2107
3672,10200,2108,2108
3673,10202,2107,2107
3674,10205,2104,2104
3675,10208,2099,2099
3676,10211,2092,2092
3677,10213,2085,2085
3678,10216,2078,2078
3679,10219,2072,2072
3680,10222,2066,2066
3681,10225,2061,2061
3682,10227,2057,2057
3683,10230,2054,2054
3684,10233,2052,2052
3685,10236,2050,2050
3686,10238,2049,2049
3687,10241,2049,2049
3688,10244,2048,2048
3689,10247,2048,2048
3690,10250,2048,2048
3691,10252,2048,2048
3692,10255,2048,2048
3693,10258,2048,2048
3694,10261,2048,2048
3695,10263,2048,2048
3696,10266,2048,2048
3697,10269,2048,2048
3698,10272,2048,2048
3699,10275,2048,2048
3700,10277,2048,2048
3701,10280,2048,2048
3702,10283,2048,2048
3703,10286,2048,2048
3704,10288,2048,2048
3705,10291,2048,2048
3706,10294,2048,2048
3707,10297,2048,2048
3708,10300,2048,2048
3709,10302,2048,2048
3710,10305,2048,2048
3711,10308,2048,2048
3712,10311,2048,2048
3713,10313,2048,2048
3714,10316,2048,2048
3715,10319,2048,2048
3716,10322,2048,2048
3717,10325,2048,2048
3718,10327,2046,2046
3719,10330,2039,2039
3720,10333,2030,2030
3721,10336,2020,2020
3722,10338,2030,2030
3723,10341,2077,2077
3724,10344,2160,2160
3725,10347,2270,2270
3726,10350,2396,2396
3727,10352,2520,2520
3728,10355,2613,2613
3729,10358,2648,2648
3730,10361,2613,2613
3731,10363,2519,2519
3732,10366,2394,2394
3733,10369,2266,2266
3734,10372,2152,2152
3735,10375,2056,2056
3736,10377,1979,1979
3737,10380,1925,1925
3738,10383,1898,1898
3739,10386,1912,1912
3740,10388,1947,1947
3741,10391,1986,1986
3742,10394,2017,2017
3743,10397,2035,2035
3744,10400,2044,2044
3745,10402,2048,2048
3746,10405,2048,2048
3747,10408,2048,2048
3748,10411,2048,2048
3749,10413,2048,2048
3750,10416,2048,2048
3751,10419,2048,2048
3752,10422,2048,2048
3753,10425,2048,2048
3754,10427,2048,2048
3755,10430,2048,2048
3756,10433,2048,2048
3757,10436,2048,2048
3758,10438,2048,2048
3759,10441,2048,2048
3760,10444,2048,2048
3761,10447,2048,2048
3762,10450,2048,2048
3763,10452,2048,2048
3764,10455,2048,2048
3765,10458,2048,2048
3766,10461,2048,2048
3767,10463,2048,2048
3768,10466,2048,2048
3769,10469,2048,2048
3770,10472,2048,2048
3771,10475,2048,2048
3772,10477,2048,2048
3773,10480,2048,2048
3774,10483,2048,2048
3775,10486,2048,2048
3776,10488,2048,2048
3777,10491,2048,2048
3778,10494,2048,2048
3779,10497,2048,2048
3780,10500,2048,2048
3781,10502,2048,2048
3782,10505,2048,2048
3783,10508,2049,2049
3784,10511,2049,2049
3785,10513,2050,2050
3786,10516,2051,2051
3787,10519,2052,2052
3788,10522,2053,2053
3789,10525,2055,2055
3790,10527,2057,2057
3791,10530,2060,2060
3792,10533,2063,2063
3793,10536,2067,2067
3794,10538,2072,2072
3795,10541,2078,2078
3796,10544,2084,2084
3797,10547,2091,2091
3798,10550,2099,2099
3799,10552,2107,2107
3800,10555,2115,2115
3801,10558,2123,2123
3802,10561,2131,2131
3803,10563,2139,2139
3804,10566,2145,2145
3805,10569,2151,2151
3806,10572,2155,2155
3807,10575,2157,2157
3808,10577,2158,2158
3809,10580,2157,2157
3810,10583,2155,2155
3811,10586,2151,2151
3812,10588,2145,2145
3813,10591,2139,2139
3814,10594,2131,2131
3815,10597,2123,2123
3816,10600,2115,2115
3817,10602,2107,2107
3818,10605,2099,2099
3819,10608,2091,2091
3820,10611,2084,2084
3821,10613,2078,2078
3822,10616,2072,2072
3823,10619,2067,2067
3824,10622,2063,2063
3825,10625,2060,2060
3826,10627,2057,2057
3827,10630,2055,2055
3828,10633,2053,2053
3829,10636,2052,2052
3830,10638,2051,2051
3831,10641,2050,2050
3832,10644,2049,2049
3833,10647,2048,2048
3834,10650,2048,2048
3835,10652,2048,2048
3836,10655,2048,2048
3837,10658,2048,2048
3838,10661,2048,2048
3839,10663,2048,2048
3840,10666,2048,2048
3841,10669,2048,2048
3842,10672,2048,2048
3843,10675,2048,2048
3844,10677,2048,2048
3845,10680,2048,2048
3846,10683,2048,2048
3847,10686,2048,2048
3848,10688,2048,2048
3849,10691,2048,2048
3850,10694,2048,2048
3851,10697,2048,2048
3852,10700,2048,2048
3853,10702,2048,2048
3854,10705,2048,2048
3855,10708,2048,2048
3856,10711,2048,2048
3857,10713,2048,2048
3858,10716,2048,2048
3859,10719,2048,2048
3860,10722,2048,2048
3861,10725,2048,2048
3862,10727,2048,2048
3863,10730,2048,2048
3864,10733,2048,2048
3865,10736,2048,2048
3866,10738,2048,2048
3867,10741,2048,2048
3868,10744,2048,2048
3869,10747,2048,2048
3870,10750,2048,2048
3871,10752,2048,2048
3872,10755,2048,2048
3873,10758,2048,2048
3874,10761,2048,2048
3875,10763,2048,2048
3876,10766,2048,2048
3877,10769,2048,2048
3878,10772,2048,2048
3879,10775,2048,2048
3880,10777,2048,2048
3881,10780,2048,2048
3882,10783,2048,2048
3883,10786,2048,2048
3884,10788,2048,2048
3885,10791,2048,2048
3886,10794,2048,2048
3887,10797,2048,2048
3888,10800,2048,2048
3889,10802,2048,2048
3890,10805,2048,2048
3891,10808,2048,2048
3892,10811,2048,2048
3893,10813,2048,2048
3894,10816,2048,2048
3895,10819,2048,2048
3896,10822,2048,2048
3897,10825,2048,2048
3898,10827,2048,2048
3899,10830,2048,2048
3900,10833,2048,2048
3901,10836,2048,2048
3902,10838,2048,2048
3903,10841,2048,2048
3904,10844,2048,2048
3905,10847,2048,2048
3906,10850,2048,2048
3907,10852,2048,2048
3908,10855,2048,2048
3909,10858,2048,2048
3910,10861,2048,2048
3911,10863,2048,2048
3912,10866,2048,2048
3913,10869,2048,2048
3914,10872,2048,2048
3915,10875,2048,2048
3916,10877,2048,2048
3917,10880,2048,2048
3918,10883,2048,2048
3919,10886,2048,2048
3920,10888,2048,2048
3921,10891,2048,2048
3922,10894,2048,2048
3923,10897,2048,2048
3924,10900,2048,2048
3925,10902,2048,2048
3926,10905,2048,2048
3927,10908,2048,2048
3928,10911,2048,2048
3929,10913,2048,2048
3930,10916,2048,2048
3931,10919,2048,2048
3932,10922,2048,2048
3933,10925,2048,2048
3934,10927,2048,2048
3935,10930,2048,2048
3936,10933,2048,2048
3937,10936,2048,2048
3938,10938,2048,2048
3939,10941,2048,2048
3940,10944,2048,2048
3941,10947,2048,2048
3942,10950,2048,2048
3943,10952,2048,2048
3944,10955,2048,2048
3945,10958,2048,2048
3946,10961,2048,2048
3947,10963,2048,2048
3948,10966,2048,2048
3949,10969,2048,2048
3950,10972,2048,2048
3951,10975,2048,2048
3952,10977,2048,2048
3953,10980,2048,2048
3954,10983,2048,2048
3955,10986,2048,2048
3956,10988,2048,2048
3957,10991,2049,2049
3958,10994,2049,2049
3959,10997,2050,2050
3960,11000,2052,2052
3961,11002,2054,2054
3962,11005,2057,2057
3963,11008,2061,2061
3964,11011,2066,2066
3965,11013,2072,2072
3966,11016,2078,2078
3967,11019,2085,2085
3968,11022,2092,2092
3969,11025,2099,2099
3970,11027,2104,2104
3971,11030,2107,2107
3972,11033,2108,2108
3973,11036,2107,2107
3974,11038,2104,2104
3975,11041,2099,2099
3976,11044,2092,2092
3977,11047,2085,2085
3978,11050,2078,2078
3979,11052,2072,2072
3980,11055,2066,2066
3981,11058,2061,2061
3982,11061,2057,2057
3983,11063,2054,2054
3984,11066,2052,2052
3985,11069,2050,2050
3986,11072,2049,2049
3987,11075,2049,2049
3988,11077,2048,2048
3989,11080,2048,2048
3990,11083,2048,2048
3991,11086,2048,2048
3992,11088,2048,2048
3993,11091,2048,2048
3994,11094,2048,2048
3995,11097,2048,2048
3996,11100,2048,2048
3997,11102,2048,2048
3998,11105,2048,2048
3999,11108,2048,2048
4000,11111,2048,2048
4001,11113,2048,2048
4002,11116,2048,2048
4003,11119,2048,2048
4004,11122,2048,2048
4005,11125,2048,2048
4006,11127,2048,2048
4007,11130,2048,2048
4008,11133,2048,2048
4009,11136,2048,2048
4010,11138,2048,2048
4011,11141,2048,2048
4012,11144,2048,2048
4013,11147,2048,2048
4014,11150,2048,2048
4015,11152,2048,2048
4016,11155,2048,2048
4017,11158,2048,2048
4018,11161,2046,2046
4019,11163,2039,2039
4020,11166,2030,2030
4021,11169,2020,2020
4022,11172,2030,2030
4023,11175,2077,2077
4024,11177,2160,2160
4025,11180,2270,2270
4026,11183,2396,2396
4027,11186,2520,2520
4028,11188,2613,2613
4029,11191,2648,2648
4030,11194,2613,2613
4031,11197,2519,2519
4032,11200,2394,2394
4033,11202,2266,2266
4034,11205,2152,2152
4035,11208,2056,2056
4036,11211,1979,1979
4037,11213,1925,1925
4038,11216,1898,1898
4039,11219,1912,1912
4040,11222,1947,1947
4041,11225,1986,1986
4042,11227,2017,2017
4043,11230,2035,2035
4044,11233,2044,2044
4045,11236,2048,2048
4046,11238,2048,2048
4047,11241,2048,2048
4048,11244,2048,2048
4049,11247,2048,2048
4050,11250,2048,2048
4051,11252,2048,2048
4052,11255,2048,2048
4053,11258,2048,2048
4054,11261,2048,2048
4055,11263,2048,2048
4056,11266,2048,2048
4057,11269,2048,2048
4058,11272,2048,2048
4059,11275,2048,2048
4060,11277,2048,2048
4061,11280,2048,2048
4062,11283,2048,2048
4063,11286,2048,2048
4064,11288,2048,2048
4065,11291,2048,2048
4066,11294,2048,2048
4067,11297,2048,2048
4068,11300,2048,2048
4069,11302,2048,2048
4070,11305,2048,2048
4071,11308,2048,2048
4072,11311,2048,2048
4073,11313,2048,2048
4074,11316,2048,2048
4075,11319,2048,2048
4076,11322,2048,2048
4077,11325,2048,2048
4078,11327,2048,2048
4079,11330,2048,2048
4080,11333,2048,2048
4081,11336,2048,2048
4082,11338,2048,2048
4083,11341,2049,2049
4084,11344,2049,2049
4085,11347,2050,2050
4086,11350,2051,2051
4087,11352,2052,2052
4088,11355,2053,2053
4089,11358,2055,2055
4090,11361,2057,2057
4091,11363,2060,2060
4092,11366,2063,2063
4093,11369,2067,2067
4094,11372,2072,2072
4095,11375,2078,2078
4096,11377,2084,2084
4097,11380,2091,2091
4098,11383,2099,2099
4099,11386,2107,2107
4100,11388,2115,2115
4101,11391,2123,2123
4102,11394,2131,2131
4103,11397,2139,2139
4104,11400,2145,2145
4105,11402,2151,2151
4106,11405,2155,2155
4107,11408,2157,2157
4108,11411,2158,2158
4109,11413,2157,2157
4110,11416,2155,2155
4111,11419,2151,2151
4112,11422,2145,2145
4113,11425,2139,2139
4114,11427,2131,2131
4115,11430,2123,2123
4116,11433,2115,2115
4117,11436,2107,2107
4118,11438,2099,2099
4119,11441,2091,2091
4120,11444,2084,2084
4121,11447,2078,2078
4122,11450,2072,2072
4123,11452,2067,2067
4124,11455,2063,2063
4125,11458,2060,2060
4126,11461,2057,2057
4127,11463,2055,2055
4128,11466,2053,2053
4129,11469,2052,2052
4130,11472,2051,2051
4131,11475,2050,2050
4132,11477,2049,2049
4133,11480,2048,2048
4134,11483,2048,2048
4135,11486,2048,2048
4136,11488,2048,2048
4137,11491,2048,2048
4138,11494,2048,2048
4139,11497,2048,2048
4140,11500,2048,2048
4141,11502,2048,2048
4142,11505,2048,2048
4143,11508,2048,2048
4144,11511,2048,2048
4145,11513,2048,2048
4146,11516,2048,2048
4147,11519,2048,2048
4148,11522,2048,2048
4149,11525,2048,2048
4150,11527,2048,2048
4151,11530,2048,2048
4152,11533,2048,2048
4153,11536,2048,2048
4154,11538,2048,2048
4155,11541,2048,2048
4156,11544,2048,2048
4157,11547,2048,2048
4158,11550,2048,2048
4159,11552,2048,2048
4160,11555,2048,2048
4161,11558,2048,2048
4162,11561,2048,2048
4163,11563,2048,2048
4164,11566,2048,2048
4165,11569,2048,2048
4166,11572,2048,2048
4167,11575,2048,2048
4168,11577,2048,2048
4169,11580,2048,2048
4170,11583,2048,2048
4171,11586,2048,2048
4172,11588,2048,2048
4173,11591,2048,2048
4174,11594,2048,2048
4175,11597,2048,2048
4176,11600,2048,2048
4177,11602,2048,2048
4178,11605,2048,2048
4179,11608,2048,2048
4180,11611,2048,2048
4181,11613,2048,2048
4182,11616,2048,2048
4183,11619,2048,2048
4184,11622,2048,2048
4185,11625,2048,2048
4186,11627,2048,2048
4187,11630,2048,2048
4188,11633,2048,2048
4189,11636,2048,2048
4190,11638,2048,2048
4191,11641,2048,2048
4192,11644,2048,2048
4193,11647,2048,2048
4194,11650,2048,2048
4195,11652,2048,2048
4196,11655,2048,2048
4197,11658,2048,2048
4198,11661,2048,2048
4199,11663,2048,2048
4200,11666,2048,2048
4201,11669,2048,2048
4202,11672,2048,2048
4203,11675,2048,2048
4204,11677,2048,2048
4205,11680,2048,2048
4206,11683,2048,2048
4207,11686,2048,2048
4208,11688,2048,2048
4209,11691,2048,2048
4210,11694,2048,2048
4211,11697,2048,2048
4212,11700,2048,2048
4213,11702,2048,2048
4214,11705,2048,2048
4215,11708,2048,2048
4216,11711,2048,2048
4217,11713,2048,2048
4218,11716,2048,2048
4219,11719,2048,2048
4220,11722,2048,2048
4221,11725,2048,2048
4222,11727,2048,2048
4223,11730,2048,2048
4224,11733,2048,2048
4225,11736,2048,2048
4226,11738,2048,2048
4227,11741,2048,2048
4228,11744,2048,2048
4229,11747,2048,2048
4230,11750,2048,2048
4231,11752,2048,2048
4232,11755,2048,2048
4233,11758,2048,2048
4234,11761,2048,2048
4235,11763,2048,2048
4236,11766,2048,2048
4237,11769,2048,2048
4238,11772,2048,2048
4239,11775,2048,2048
4240,11777,2048,2048
4241,11780,2048,2048
4242,11783,2048,2048
4243,11786,2048,2048
4244,11788,2048,2048
4245,11791,2048,2048
4246,11794,2048,2048
4247,11797,2048,2048
4248,11800,2048,2048
4249,11802,2048,2048
4250,11805,2048,2048
4251,11808,2048,2048
4252,11811,2048,2048
4253,11813,2048,2048
4254,11816,2048,2048
4255,11819,2048,2048
4256,11822,2048,2048
4257,11825,2049,2049
4258,11827,2049,2049
4259,11830,2050,2050
4260,11833,2052,2052
4261,11836,2054,2054
4262,11838,2057,2057
4263,11841,2061,2061
4264,11844,2066,2066
4265,11847,2072,2072
4266,11850,2078,2078
4267,11852,2085,2085
4268,11855,2092,2092
4269,11858,2099,2099
4270,11861,2104,2104
4271,11863,2107,2107
4272,11866,2108,2108
4273,11869,2107,2107
4274,11872,2104,2104
4275,11875,2099,2099
4276,11877,2092,2092
4277,11880,2085,2085
4278,11883,2078,2078
4279,11886,2072,2072
4280,11888,2066,2066
4281,11891,2061,2061
4282,11894,2057,2057
4283,11897,2054,2054
4284,11900,2052,2052
4285,11902,2050,2050
4286,11905,2049,2049
4287,11908,2049,2049
4288,11911,2048,2048
4289,11913,2048,2048
4290,11916,2048,2048
4291,11919,2048,2048
4292,11922,2048,2048
4293,11925,2048,2048
4294,11927,2048,2048
4295,11930,2048,2048
4296,11933,2048,2048
4297,11936,2048,2048
4298,11938,2048,2048
4299,11941,2048,2048
4300,11944,2048,2048
4301,11947,2048,2048
4302,11950,2048,2048
4303,11952,2048,2048
4304,11955,2048,2048
4305,11958,2048,2048
4306,11961,2048,2048
4307,11963,2048,2048
4308,11966,2048,2048
4309,11969,2048,2048
4310,11972,2048,2048
4311,11975,2048,2048
4312,11977,2048,2048
4313,11980,2048,2048
4314,11983,2048,2048
4315,11986,2048,2048
4316,11988,2048,2048
4317,11991,2048,2048
4318,11994,2046,2046
4319,11997,2039,2039
4320,12000,2030,2030
4321,12002,2020,2020
4322,12005,2030,2030
4323,12008,2077,2077
4324,12011,2160,2160
4325,12013,2270,2270
4326,12016,2396,2396
4327,12019,2520,2520
4328,12022,2613,2613
4329,12025,2648,2648
4330,12027,2613,2613
4331,12030,2519,2519
4332,12033,2394,2394
4333,12036,2266,2266
4334,12038,2152,2152
4335,12041,2056,2056
4336,12044,1979,1979
4337,12047,1925,1925
4338,12050,1898,1898
4339,12052,1912,1912
4340,12055,1947,1947
4341,12058,1986,1986
4342,12061,2017,2017
4343,12063,2035,2035
4344,12066,2044,2044
4345,12069,2048,2048
4346,12072,2048,2048
4347,12075,2048,2048
4348,12077,2048,2048
4349,12080,2048,2048
4350,12083,2048,2048
4351,12086,2048,2048
4352,12088,2048,2048
4353,12091,2048,2048
4354,12094,2048,2048
4355,12097,2048,2048
4356,12100,2048,2048
4357,12102,2048,2048
4358,12105,2048,2048
4359,12108,2048,2048
4360,12111,2048,2048
4361,12113,2048,2048
4362,12116,2048,2048
4363,12119,2048,2048
4364,12122,2048,2048
4365,12125,2048,2048
4366,12127,2048,2048
4367,12130,2048,2048
4368,12133,2048,2048
4369,12136,2048,2048
4370,12138,2048,2048
4371,12141,2048,2048
4372,12144,2048,2048
4373,12147,2048,2048
4374,12150,2048,2048
4375,12152,2048,2048
4376,12155,2048,2048
4377,12158,2048,2048
4378,12161,2048,2048
4379,12163,2048,2048
4380,12166,2048,2048
4381,12169,2048,2048
4382,12172,2048,2048
4383,12175,2049,2049
4384,12177,2049,2049
4385,12180,2050,2050
4386,12183,2051,2051
4387,12186,2052,2052
4388,12188,2053,2053
4389,12191,2055,2055
4390,12194,2057,2057
4391,12197,2060,2060
4392,12200,2063,2063
4393,12202,2067,2067
4394,12205,2072,2072
4395,12208,2078,2078
4396,12211,2084,2084
4397,12213,2091,2091
4398,12216,2099,2099
4399,12219,2107,2107
4400,12222,2115,2115
4401,12225,2123,2123
4402,12227,2131,2131
4403,12230,2139,2139
4404,12233,2145,2145
4405,12236,2151,2151
4406,12238,2155,2155
4407,12241,2157,2157
4408,12244,2158,2158
4409,12247,2157,2157
4410,12250,2155,2155
4411,12252,2151,2151
4412,12255,2145,2145
4413,12258,2139,2139
4414,12261,2131,2131
4415,12263,2123,2123
4416,12266,2115,2115
4417,12269,2107,2107
4418,12272,2099,2099
4419,12275,2091,2091
4420,12277,2084,2084
4421,12280,2078,2078
4422,12283,2072,2072
4423,12286,2067,2067
4424,12288,2063,2063
4425,12291,2060,2060
4426,12294,2057,2057
4427,12297,2055,2055
4428,12300,2053,2053
4429,12302,2052,2052
4430,12305,2051,2051
4431,12308,2050,2050
4432,12311,2049,2049
4433,12313,2048,2048
4434,12316,2048,2048
4435,12319,2048,2048
4436,12322,2048,2048
4437,12325,2048,2048
4438,12327,2048,2048
4439,12330,2048,2048
4440,12333,2048,2048
4441,12336,2048,2048
4442,12338,2048,2048
4443,12341,2048,2048
4444,12344,2048,2048
4445,12347,2048,2048
4446,12350,2048,2048
4447,12352,2048,2048
4448,12355,2048,2048
4449,12358,2048,2048
4450,12361,2048,2048
4451,12363,2048,2048
4452,12366,2048,2048
4453,12369,2048,2048
4454,12372,2048,2048
4455,12375,2048,2048
4456,12377,2048,2048
4457,12380,2048,2048
4458,12383,2048,2048
4459,12386,2048,2048
4460,12388,2048,2048
4461,12391,2048,2048
4462,12394,2048,2048
4463,12397,2048,2048
4464,12400,2048,2048
4465,12402,2048,2048
4466,12405,2048,2048
4467,12408,2048,2048
4468,12411,2048,2048
4469,12413,2048,2048
4470,12416,2048,2048
4471,12419,2048,2048
4472,12422,2048,2048
4473,12425,2048,2048
4474,12427,2048,2048
4475,12430,2048,2048
4476,12433,2048,2048
4477,12436,2048,2048
4478,12438,2048,2048
4479,12441,2048,2048
4480,12444,2048,2048
4481,12447,2048,2048
4482,12450,2048,2048
4483,12452,2048,2048
4484,12455,2048,2048
4485,12458,2048,2048
4486,12461,2048,2048
4487,12463,2048,2048
4488,12466,2048,2048
4489,12469,2048,2048
4490,12472,2048,2048
4491,12475,2048,2048
4492,12477,2048,2048
4493,12480,2048,2048
4494,12483,2048,2048
4495,12486,2048,2048
4496,12488,2048,2048
4497,12491,2048,2048
4498,12494,2048,2048
4499,12497,2048,2048
4500,12500,2048,2048
4501,12502,2048,2048
4502,12505,2048,2048
4503,12508,2048,2048
4504,12511,2054,2054
4505,12513,2057,2057
4506,12516,2011,2011
4507,12519,2017,2017
4508,12522,2024,2024
4509,12525,2034,2034
4510,12527,2047,2047
4511,12530,2063,2063
4512,12533,2083,2083
4513,12536,2108,2108
4514,12538,2138,2138
4515,12541,2173,2173
4516,12544,2264,2264
4517,12547,2310,2310
4518,12550,2361,2361
4519,12552,2417,2417
4520,12555,2475,2475
4521,12558,2535,2535
4522,12561,2591,2591
4523,12563,2647,2647
4524,12566,2698,2698
4525,12569,2742,2742
4526,12572,2777,2777
4527,12575,2801,2801
4528,12577,2812,2812
4529,12580,2809,2809
4530,12583,2791,2791
4531,12586,2759,2759
4532,12588,2713,2713
4533,12591,2654,2654
4534,12594,2584,2584
4535,12597,2504,2504
4536,12600,2416,2416
4537,12602,2324,2324
4538,12605,2229,2229
4539,12608,2133,2133
4540,12611,2038,2038
4541,12613,1946,1946
4542,12616,1860,1860
4543,12619,1780,1780
4544,12622,1708,1708
4545,12625,1644,1644
4546,12627,1590,1590
4547,12630,1546,1546
4548,12633,1511,1511
4549,12636,1488,1488
4550,12638,1474,1474
4551,12641,1471,1471
4552,12644,1476,1476
4553,12647,1490,1490
4554,12650,1504,1504
4555,12652,1534,1534
4556,12655,1568,1568
4557,12658,1605,1605
4558,12661,1644,1644
4559,12663,1684,1684
4560,12666,1724,1724
4561,12669,1764,1764
4562,12672,1801,1801
4563,12675,1837,1837
4564,12677,1869,1869
4565,12680,1898,1898
4566,12683,1924,1924
4567,12686,1947,1947
4568,12688,1967,1967
4569,12691,1983,1983
4570,12694,1997,1997
4571,12697,2009,2009
4572,12700,2018,2018
4573,12702,2025,2025
4574,12705,2031,2031
4575,12708,2035,2035
4576,12711,2039,2039
4577,12713,2041,2041
4578,12716,2048,2048
4579,12719,2048,2048
4580,12722,2048,2048
4581,12725,2048,2048
4582,12727,2048,2048
4583,12730,2047,2047
4584,12733,2046,2046
4585,12736,2046,2046
4586,12738,2044,2044
4587,12741,2043,2043
4588,12744,2041,2041
4589,12747,2039,2039
4590,12750,2036,2036
4591,12752,2032,2032
4592,12755,2027,2027
4593,12758,2022,2022
4594,12761,2015,2015
4595,12763,2007,2007
4596,12766,1999,1999
4597,12769,1989,1989
4598,12772,1979,1979
4599,12775,1968,1968
4600,12777,1957,1957
4601,12780,1945,1945
4602,12783,1934,1934
4603,12786,1924,1924
4604,12788,1915,1915
4605,12791,1908,1908
4606,12794,1903,1903
4607,12797,1899,1899
4608,12800,1898,1898
4609,12802,1899,1899
4610,12805,1903,1903
4611,12808,1908,1908
4612,12811,1915,1915
4613,12813,1924,1924
4614,12816,1934,1934
4615,12819,1945,1945
4616,12822,1957,1957
4617,12825,1968,1968
4618,12827,1979,1979
4619,12830,1989,1989
4620,12833,1999,1999
4621,12836,2007,2007
4622,12838,2015,2015
4623,12841,2022,2022
4624,12844,2027,2027
4625,12847,2032,2032
4626,12850,2036,2036
4627,12852,2039,2039
4628,12855,2041,2041
4629,12858,2043,2043
4630,12861,2044,2044
4631,12863,2046,2046
4632,12866,2048,2048
4633,12869,2048,2048
4634,12872,2048,2048
4635,12875,2048,2048
4636,12877,2048,2048
4637,12880,2048,2048
4638,12883,2048,2048
4639,12886,2048,2048
4640,12888,2048,2048
4641,12891,2048,2048
4642,12894,2048,2048
4643,12897,2048,2048
4644,12900,2048,2048
4645,12902,2048,2048
4646,12905,2048,2048
4647,12908,2048,2048
4648,12911,2048,2048
4649,12913,2048,2048
4650,12916,2048,2048
4651,12919,2048,2048
4652,12922,2048,2048
4653,12925,2048,2048
4654,12927,2048,2048
4655,12930,2048,2048
4656,12933,2048,2048
4657,12936,2048,2048
4658,12938,2048,2048
4659,12941,2048,2048
4660,12944,2048,2048
4661,12947,2048,2048
4662,12950,2048,2048
4663,12952,2048,2048
4664,12955,2048,2048
4665,12958,2048,2048
4666,12961,2048,2048
4667,12963,2048,2048
4668,12966,2048,2048
4669,12969,2048,2048
4670,12972,2048,2048
4671,12975,2048,2048
4672,12977,2048,2048
4673,12980,2048,2048
4674,12983,2048,2048
4675,12986,2048,2048
4676,12988,2048,2048
4677,12991,2048,2048
4678,12994,2048,2048
4679,12997,2048,2048
4680,13000,2048,2048
4681,13002,2048,2048
4682,13005,2048,2048
4683,13008,2048,2048
4684,13011,2048,2048
4685,13013,2048,2048
4686,13016,2048,2048
4687,13019,2048,2048
4688,13022,2048,2048
4689,13025,2048,2048
4690,13027,2048,2048
4691,13030,2048,2048
4692,13033,2048,2048
4693,13036,2048,2048
4694,13038,2048,2048
4695,13041,2048,2048
4696,13044,2048,2048
4697,13047,2048,2048
4698,13050,2048,2048
4699,13052,2048,2048
4700,13055,2048,2048
4701,13058,2048,2048
4702,13061,2048,2048
4703,13063,2048,2048
4704,13066,2048,2048
4705,13069,2048,2048
4706,13072,2048,2048
4707,13075,2048,2048
4708,13077,2048,2048
4709,13080,2048,2048
4710,13083,2048,2048
4711,13086,2048,2048
4712,13088,2048,2048
4713,13091,2048,2048
4714,13094,2048,2048
4715,13097,2048,2048
4716,13100,2048,2048
4717,13102,2048,2048
4718,13105,2048,2048
4719,13108,2048,2048
4720,13111,2048,2048
4721,13113,2048,2048
4722,13116,2048,2048
4723,13119,2048,2048
4724,13122,2048,2048
4725,13125,2048,2048
4726,13127,2048,2048
4727,13130,2048,2048
4728,13133,2048,2048
4729,13136,2048,2048
4730,13138,2048,2048
4731,13141,2048,2048
4732,13144,2048,2048
4733,13147,2048,2048
4734,13150,2048,2048
4735,13152,2048,2048
4736,13155,2048,2048
4737,13158,2048,2048
4738,13161,2048,2048
4739,13163,2048,2048
4740,13166,2048,2048
4741,13169,2048,2048
4742,13172,2048,2048
4743,13175,2048,2048
4744,13177,2048,2048
4745,13180,2048,2048
4746,13183,2048,2048
4747,13186,2048,2048
4748,13188,2048,2048
4749,13191,2048,2048
4750,13194,2048,2048
4751,13197,2048,2048
4752,13200,2048,2048
4753,13202,2048,2048
4754,13205,2048,2048
4755,13208,2048,2048
4756,13211,2048,2048
4757,13213,2048,2048
4758,13216,2048,2048
4759,13219,2048,2048
4760,13222,2048,2048
4761,13225,2048,2048
4762,13227,2048,2048
4763,13230,2048,2048
4764,13233,2048,2048
4765,13236,2048,2048
4766,13238,2048,2048
4767,13241,2048,2048
4768,13244,2048,2048
4769,13247,2048,2048
4770,13250,2048,2048
4771,13252,2048,2048
4772,13255,2048,2048
4773,13258,2048,2048
4774,13261,2048,2048
4775,13263,2048,2048
4776,13266,2048,2048
4777,13269,2048,2048
4778,13272,2048,2048
4779,13275,2048,2048
4780,13277,2048,2048
4781,13280,2048,2048
4782,13283,2048,2048
4783,13286,2048,2048
4784,13288,2048,2048
4785,13291,2048,2048
4786,13294,2048,2048
4787,13297,2048,2048
4788,13300,2048,2048
4789,13302,2048,2048
4790,13305,2048,2048
4791,13308,2048,2048
4792,13311,2048,2048
4793,13313,2048,2048
4794,13316,2048,2048
4795,13319,2048,2048
4796,13322,2048,2048
4797,13325,2048,2048
4798,13327,2048,2048
4799,13330,2048,2048
4800,13333,2048,2048
4801,13336,2048,2048
4802,13338,2048,2048
4803,13341,2048,2048
4804,13344,2048,2048
4805,13347,2048,2048
4806,13350,2048,2048
4807,13352,2048,2048
4808,13355,2048,2048
4809,13358,2048,2048
4810,13361,2048,2048
4811,13363,2048,2048
4812,13366,2048,2048
4813,13369,2048,2048
4814,13372,2048,2048
4815,13375,2048,2048
4816,13377,2048,2048
4817,13380,2048,2048
4818,13383,2048,2048
4819,13386,2048,2048
4820,13388,2048,2048
4821,13391,2048,2048
4822,13394,2048,2048
4823,13397,2048,2048
4824,13400,2048,2048
4825,13402,2048,2048
4826,13405,2048,2048
4827,13408,2048,2048
4828,13411,2048,2048
4829,13413,2048,2048
4830,13416,2048,2048
4831,13419,2048,2048
4832,13422,2048,2048
4833,13425,2048,2048
4834,13427,2048,2048
4835,13430,2048,2048
4836,13433,2048,2048
4837,13436,2048,2048
4838,13438,2048,2048
4839,13441,2048,2048
4840,13444,2048,2048
4841,13447,2048,2048
4842,13450,2048,2048
4843,13452,2048,2048
4844,13455,2048,2048
4845,13458,2048,2048
4846,13461,2048,2048
4847,13463,2048,2048
4848,13466,2048,2048
4849,13469,2048,2048
4850,13472,2048,2048
4851,13475,2048,2048
4852,13477,2048,2048
4853,13480,2048,2048
4854,13483,2048,2048
4855,13486,2048,2048
4856,13488,2048,2048
4857,13491,2048,2048
4858,13494,2048,2048
4859,13497,2048,2048
4860,13500,2048,2048
4861,13502,2048,2048
4862,13505,2048,2048
4863,13508,2048,2048
4864,13511,2048,2048
4865,13513,2048,2048
4866,13516,2048,2048
4867,13519,2048,2048
4868,13522,2048,2048
4869,13525,2049,2049
4870,13527,2049,2049
4871,13530,2050,2050
4872,13533,2052,2052
4873,13536,2054,2054
4874,13538,2057,2057
4875,13541,2061,2061
4876,13544,2066,2066
4877,13547,2072,2072
4878,13550,2078,2078
4879,13552,2085,2085
4880,13555,2092,2092
4881,13558,2099,2099
4882,13561,2104,2104
4883,13563,2107,2107
4884,13566,2108,2108
4885,13569,2107,2107
4886,13572,2104,2104
4887,13575,2099,2099
4888,13577,2092,2092
4889,13580,2085,2085
4890,13583,2078,2078
4891,13586,2072,2072
4892,13588,2066,2066
4893,13591,2061,2061
4894,13594,2057,2057
4895,13597,2054,2054
4896,13600,2052,2052
4897,13602,2050,2050
4898,13605,2049,2049
4899,13608,2049,2049
4900,13611,2048,2048
4901,13613,2048,2048
4902,13616,2048,2048
4903,13619,2048,2048
4904,13622,2048,2048
4905,13625,2048,2048
4906,13627,2048,2048
4907,13630,2048,2048
4908,13633,2048,2048
4909,13636,2048,2048
4910,13638,2048,2048
4911,13641,2048,2048
4912,13644,2048,2048
4913,13647,2048,2048
4914,13650,2048,2048
4915,13652,2048,2048
4916,13655,2048,2048
4917,13658,2048,2048
4918,13661,2048,2048
4919,13663,2048,2048
4920,13666,2048,2048
4921,13669,2048,2048
4922,13672,2048,2048
4923,13675,2048,2048
4924,13677,2048,2048
4925,13680,2048,2048
4926,13683,2048,2048
4927,13686,2048,2048
4928,13688,2048,2048
4929,13691,2048,2048
4930,13694,2046,2046
4931,13697,2039,2039
4932,13700,2030,2030
4933,13702,2020,2020
4934,13705,2030,2030
4935,13708,2077,2077
4936,13711,2160,2160
4937,13713,2270,2270
4938,13716,2396,2396
4939,13719,2520,2520
4940,13722,2613,2613
4941,13725,2648,2648
4942,13727,2613,2613
4943,13730,2519,2519
4944,13733,2394,2394
4945,13736,2266,2266
4946,13738,2152,2152
4947,13741,2056,2056
4948,13744,1979,1979
4949,13747,1925,1925
4950,13750,1898,1898
4951,13752,1912,1912
4952,13755,1947,1947
4953,13758,1986,1986
4954,13761,2017,2017
4955,13763,2035,2035
4956,13766,2044,2044
4957,13769,2048,2048
4958,13772,2048,2048
4959,13775,2048,2048
4960,13777,2048,2048
4961,13780,2048,2048
4962,13783,2048,2048
4963,13786,2048,2048
4964,13788,2048,2048
4965,13791,2048,2048
4966,13794,2048,2048
4967,13797,2048,2048
4968,13800,2048,2048
4969,13802,2048,2048
4970,13805,2048,2048
4971,13808,2048,2048
4972,13811,2048,2048
4973,13813,2048,2048
4974,13816,2048,2048
4975,13819,2048,2048
4976,13822,2048,2048
4977,13825,2048,2048
4978,13827,2048,2048
4979,13830,2048,2048
4980,13833,2048,2048
4981,13836,2048,2048
4982,13838,2048,2048
4983,13841,2048,2048
4984,13844,2048,2048
4985,13847,2048,2048
4986,13850,2048,2048
4987,13852,2048,2048
4988,13855,2048,2048
4989,13858,2048,2048
4990,13861,2048,2048
4991,13863,2048,2048
4992,13866,2048,2048
4993,13869,2048,2048
4994,13872,2048,2048
4995,13875,2049,2049
4996,13877,2049,2049
4997,13880,2050,2050
4998,13883,2051,2051
4999,13886,2052,2052
5000,13888,2053,2053
5001,13891,2055,2055
5002,13894,2057,2057
5003,13897,2060,2060
5004,13900,2063,2063
5005,13902,2067,2067
5006,13905,2072,2072
5007,13908,2078,2078
5008,13911,2084,2084
5009,13913,2091,2091
5010,13916,2099,2099
5011,13919,2107,2107
5012,13922,2115,2115
5013,13925,2123,2123
5014,13927,2131,2131
5015,13930,2139,2139
5016,13933,2145,2145
5017,13936,2151,2151
5018,13938,2155,2155
5019,13941,2157,2157
5020,13944,2158,2158
5021,13947,2157,2157
5022,13950,2155,2155
5023,13952,2151,2151
5024,13955,2145,2145
5025,13958,2139,2139
5026,13961,2131,2131
5027,13963,2123,2123
5028,13966,2115,2115
5029,13969,2107,2107
5030,13972,2099,2099
5031,13975,2091,2091
5032,13977,2084,2084
5033,13980,2078,2078
5034,13983,2072,2072
5035,13986,2067,2067
5036,13988,2063,2063
5037,13991,2060,2060
5038,13994,2057,2057
5039,13997,2055,2055
5040,14000,2053,2053
5041,14002,2052,2052
5042,14005,2051,2051
5043,14008,2050,2050
5044,14011,2049,2049
5045,14013,2048,2048
5046,14016,2048,2048
5047,14019,2048,2048
5048,14022,2048,2048
5049,14025,2048,2048
5050,14027,2048,2048
5051,14030,2048,2048
5052,14033,2048,2048
5053,14036,2048,2048
5054,14038,2048,2048
5055,14041,2048,2048
5056,14044,2048,2048
5057,14047,2048,2048
5058,14050,2048,2048
5059,14052,2048,2048
5060,14055,2048,2048
5061,14058,2048,2048
5062,14061,2048,2048
5063,14063,2048,2048
5064,14066,2048,2048
5065,14069,2048,2048
5066,14072,2048,2048
5067,14075,2048,2048
5068,14077,2048,2048
5069,14080,2048,2048
5070,14083,2048,2048
5071,14086,2048,2048
5072,14088,2048,2048
5073,14091,2048,2048
5074,14094,2048,2048
5075,14097,2048,2048
5076,14100,2048,2048
5077,14102,2048,2048
5078,14105,2048,2048
5079,14108,2048,2048
5080,14111,2048,2048
5081,14113,2048,2048
5082,14116,2048,2048
5083,14119,2048,2048
5084,14122,2048,2048
5085,14125,2048,2048
5086,14127,2048,2048
5087,14130,2048,2048
5088,14133,2048,2048
5089,14136,2048,2048
5090,14138,2048,2048
5091,14141,2048,2048
5092,14144,2048,2048
5093,14147,2048,2048
5094,14150,2048,2048
5095,14152,2048,2048
5096,14155,2048,2048
5097,14158,2048,2048
5098,14161,2048,2048
5099,14163,2048,2048
5100,14166,2048,2048
5101,14169,2048,2048
5102,14172,2048,2048
5103,14175,2048,2048
5104,14177,2048,2048
5105,14180,2048,2048
5106,14183,2048,2048
5107,14186,2048,2048
5108,14188,2048,2048
5109,14191,2048,2048
5110,14194,2048,2048
5111,14197,2048,2048
5112,14200,2048,2048
5113,14202,2048,2048
5114,14205,2048,2048
5115,14208,2048,2048
5116,14211,2048,2048
5117,14213,2048,2048
5118,14216,2048,2048
5119,14219,2048,2048
5120,14222,2048,2048
5121,14225,2048,2048
5122,14227,2048,2048
5123,14230,2048,2048
5124,14233,2048,2048
5125,14236,2048,2048
5126,14238,2048,2048
5127,14241,2048,2048
5128,14244,2048,2048
5129,14247,2048,2048
5130,14250,2048,2048
5131,14252,2048,2048
5132,14255,2048,2048
5133,14258,2048,2048
5134,14261,2048,2048
5135,14263,2048,2048
5136,14266,2048,2048
5137,14269,2048,2048
5138,14272,2048,2048
5139,14275,2048,2048
5140,14277,2048,2048
5141,14280,2048,2048
5142,14283,2048,2048
5143,14286,2048,2048
5144,14288,2048,2048
5145,14291,2048,2048
5146,14294,2048,2048
5147,14297,2048,2048
5148,14300,2048,2048
5149,14302,2048,2048
5150,14305,2048,2048
5151,14308,2048,2048
5152,14311,2048,2048
5153,14313,2048,2048
5154,14316,2048,2048
5155,14319,2048,2048
5156,14322,2048,2048
5157,14325,2048,2048
5158,14327,2048,2048
5159,14330,2048,2048
5160,14333,2048,2048
5161,14336,2048,2048
5162,14338,2048,2048
5163,14341,2048,2048
5164,14344,2048,2048
5165,14347,2048,2048
5166,14350,2048,2048
5167,14352,2048,2048
5168,14355,2048,2048
5169,14358,2049,2049
5170,14361,2049,2049
5171,14363,2050,2050
5172,14366,2052,2052
5173,14369,2054,2054
5174,14372,2057,2057
5175,14375,2061,2061
5176,14377,2066,2066
5177,14380,2072,2072
5178,14383,2078,2078
5179,14386,2085,2085
5180,14388,2092,2092
5181,14391,2099,2099
5182,14394,2104,2104
5183,14397,2107,2107
5184,14400,2108,2108
5185,14402,2107,2107
5186,14405,2104,2104
5187,14408,2099,2099
5188,14411,2092,2092
5189,14413,2085,2085
5190,14416,2078,2078
5191,14419,2072,2072
5192,14422,2066,2066
5193,14425,2061,2061
5194,14427,2057,2057
5195,14430,2054,2054
5196,14433,2052,2052
5197,14436,2050,2050
5198,14438,2049,2049
5199,14441,2049,2049
5200,14444,2048,2048
5201,14447,2048,2048
5202,14450,2048,2048
5203,14452,2048,2048
5204,14455,2048,2048
5205,14458,2048,2048
5206,14461,2048,2048
5207,14463,2048,2048
5208,14466,2048,2048
5209,14469,2048,2048
5210,14472,2048,2048
5211,14475,2048,2048
5212,14477,2048,2048
5213,14480,2048,2048
5214,14483,2048,2048
5215,14486,2048,2048
5216,14488,2048,2048
5217,14491,2048,2048
5218,14494,2048,2048
5219,14497,2048,2048
5220,14500,2048,2048
5221,14502,2048,2048
5222,14505,2048,2048
5223,14508,2048,2048
5224,14511,2048,2048
5225,14513,2048,2048
5226,14516,2048,2048
5227,14519,2048,2048
5228,14522,2048,2048
5229,14525,2048,2048
5230,14527,2046,2046
5231,14530,2039,2039
5232,14533,2030,2030
5233,14536,2020,2020
5234,14538,2030,2030
5235,14541,2077,2077
5236,14544,2160,2160
5237,14547,2270,2270
5238,14550,2396,2396
5239,14552,2520,2520
5240,14555,2613,2613
5241,14558,2648,2648
5242,14561,2613,2613
5243,14563,2519,2519
5244,14566,2394,2394
5245,14569,2266,2266
5246,14572,2152,2152
5247,14575,2056,2056
5248,14577,1979,1979
5249,14580,1925,1925
5250,14583,1898,1898
5251,14586,1912,1912
5252,14588,1947,1947
5253,14591,1986,1986
5254,14594,2017,2017
5255,14597,2035,2035
5256,14600,2044,2044
5257,14602,2048,2048
5258,14605,2048,2048
5259,14608,2048,2048
5260,14611,2048,2048
5261,14613,2048,2048
5262,14616,2048,2048
5263,14619,2048,2048
5264,14622,2048,2048
5265,14625,2048,2048
5266,14627,2048,2048
5267,14630,2048,2048
5268,14633,2048,2048
5269,14636,2048,2048
5270,14638,2048,2048
5271,14641,2048,2048
5272,14644,2048,2048
5273,14647,2048,2048
5274,14650,2048,2048
5275,14652,2048,2048
5276,14655,2048,2048
5277,14658,2048,2048
5278,14661,2048,2048
5279,14663,2048,2048
5280,14666,2048,2048
5281,14669,2048,2048
5282,14672,2048,2048
5283,14675,2048,2048
5284,14677,2048,2048
5285,14680,2048,2048
5286,14683,2048,2048
5287,14686,2048,2048
5288,14688,2048,2048
5289,14691,2048,2048
5290,14694,2048,2048
5291,14697,2048,2048
5292,14700,2048,2048
5293,14702,2048,2048
5294,14705,2048,2048
5295,14708,2049,2049
5296,14711,2049,2049
5297,14713,2050,2050
5298,14716,2051,2051
5299,14719,2052,2052
5300,14722,2053,2053
5301,14725,2055,2055
5302,14727,2057,2057
5303,14730,2060,2060
5304,14733,2063,2063
5305,14736,2067,2067
5306,14738,2072,2072
5307,14741,2078,2078
5308,14744,2084,2084
5309,14747,2091,2091
5310,14750,2099,2099
5311,14752,2107,2107
5312,14755,2115,2115
5313,14758,2123,2123
5314,14761,2131,2131
5315,14763,2139,2139
5316,14766,2145,2145
5317,14769,2151,2151
5318,14772,2155,2155
5319,14775,2157,2157
5320,14777,2158,2158
5321,14780,2157,2157
5322,14783,2155,2155
5323,14786,2151,2151
5324,14788,2145,2145
5325,14791,2139,2139
5326,14794,2131,2131
5327,14797,2123,2123
5328,14800,2115,2115
5329,14802,2107,2107
5330,14805,2099,2099
5331,14808,2091,2091
5332,14811,2084,2084
5333,14813,2078,2078
5334,14816,2072,2072
5335,14819,2067,2067
5336,14822,2063,2063
5337,14825,2060,2060
5338,14827,2057,2057
5339,14830,2055,2055
5340,14833,2053,2053
5341,14836,2052,2052
5342,14838,2051,2051
5343,14841,2050,2050
5344,14844,2049,2049
5345,14847,2048,2048
5346,14850,2048,2048
5347,14852,2048,2048
5348,14855,2048,2048
5349,14858,2048,2048
5350,14861,2048,2048
5351,14863,2048,2048
5352,14866,2048,2048
5353,14869,2048,2048
5354,14872,2048,2048
5355,14875,2048,2048
5356,14877,2048,2048
5357,14880,2048,2048
5358,14883,2048,2048
5359,14886,2048,2048
5360,14888,2048,2048
5361,14891,2048,2048
5362,14894,2048,2048
5363,14897,2048,2048
5364,14900,2048,2048
5365,14902,2048,2048
5366,14905,2048,2048
5367,14908,2048,2048
5368,14911,2048,2048
5369,14913,2048,2048
5370,14916,2048,2048
5371,14919,2048,2048
5372,14922,2048,2048
5373,14925,2048,2048
5374,14927,2048,2048
5375,14930,2048,2048
5376,14933,2048,2048
5377,14936,2048,2048
5378,14938,2048,2048
5379,14941,2048,2048
5380,14944,2048,2048
5381,14947,2048,2048
5382,14950,2048,2048
5383,14952,2048,2048
5384,14955,2048,2048
5385,14958,2048,2048
5386,14961,2048,2048
5387,14963,2048,2048
5388,14966,2048,2048
5389,14969,2048,2048
5390,14972,2048,2048
5391,14975,2048,2048
5392,14977,2048,2048
5393,14980,2048,2048
5394,14983,2048,2048
5395,14986,2048,2048
5396,14988,2048,2048
5397,14991,2048,2048
5398,14994,2048,2048
5399,14997,2048,2048
