Index,Time_ms,Raw,Filtered
0,0,2048,2048
1,2,2048,2048
2,5,2048,2048
3,8,2048,2048
4,11,2048,2048
5,13,2048,2048
6,16,2048,2048
7,19,2048,2048
8,22,2048,2048
9,25,2048,2048
10,27,2048,2048
11,30,2048,2048
12,33,2048,2048
13,36,2048,2048
14,38,2048,2048
15,41,2048,2048
16,44,2048,2048
17,47,2048,2048
18,50,2048,2048
19,52,2048,2048
20,55,2048,2048
21,58,2048,2048
22,61,2048,2048
23,63,2048,2048
24,66,2048,2048
25,69,2048,2048
26,72,2049,2049
27,75,2049,2049
28,77,2050,2050
29,80,2051,2051
30,83,2052,2052
31,86,2054,2054
32,88,2057,2057
33,91,2060,2060
34,94,2064,2064
35,97,2069,2069
36,100,2074,2074
37,102,2080,2080
38,105,2086,2086
39,108,2091,2091
40,111,2096,2096
41,113,2100,2100
42,116,2102,2102
43,119,2103,2103
44,122,2102,2102
45,125,2100,2100
46,127,2096,2096
47,130,2091,2091
48,133,2086,2086
49,136,2080,2080
50,138,2074,2074
51,141,2069,2069
52,144,2064,2064
53,147,2060,2060
54,150,2057,2057
55,152,2054,2054
56,155,2052,2052
57,158,2051,2051
58,161,2050,2050
59,163,2049,2049
60,166,2049,2049
61,169,2048,2048
62,172,2048,2048
63,175,2048,2048
64,177,2048,2048
65,180,2048,2048
66,183,2048,2048
67,186,2048,2048
68,188,2048,2048
69,191,2048,2048
70,194,2048,2048
71,197,2048,2048
72,200,2048,2048
73,202,2048,2048
74,205,2048,2048
75,208,2048,2048
76,211,2048,2048
77,213,2048,2048
78,216,2048,2048
79,219,2051,2051
80,222,2052,2052
81,225,2055,2055
82,227,2058,2058
83,230,2063,2063
84,233,2069,2069
85,236,2078,2078
86,238,2089,2089
87,241,2103,2103
88,244,2120,2120
89,247,2141,2141
90,250,2165,2165
91,252,2192,2192
92,255,2221,2221
93,258,2252,2252
94,261,2284,2284
95,263,2314,2314
96,266,2342,2342
97,269,2365,2365
98,272,2383,2383
99,275,2394,2394
100,277,2398,2398
101,280,2394,2394
102,283,2383,2383
103,286,2365,2365
104,288,2342,2342
105,291,2314,2314
106,294,2284,2284
107,297,2252,2252
108,300,2221,2221
109,302,2192,2192
110,305,2165,2165
111,308,2141,2141
112,311,2120,2120
113,313,2103,2103
114,316,2089,2089
115,319,2078,2078
116,322,2069,2069
117,325,2063,2063
118,327,2058,2058
119,330,2055,2055
120,333,2052,2052
121,336,2048,2048
122,338,2048,2048
123,341,2048,2048
124,344,2048,2048
125,347,2048,2048
126,350,2048,2048
127,352,2048,2048
128,355,2048,2048
129,358,2048,2048
130,361,2048,2048
131,363,2048,2048
132,366,2048,2048
133,369,2048,2048
134,372,2048,2048
135,375,2048,2048
136,377,2048,2048
137,380,2048,2048
138,383,2048,2048
139,386,2048,2048
140,388,2048,2048
141,391,2048,2048
142,394,2048,2048
143,397,2048,2048
144,400,2048,2048
145,402,2048,2048
146,405,2048,2048
147,408,2048,2048
148,411,2048,2048
149,413,2048,2048
150,416,2048,2048
151,419,2049,2049
152,422,2049,2049
153,425,2049,2049
154,427,2050,2050
155,430,2051,2051
156,433,2051,2051
157,436,2053,2053
158,438,2054,2054
159,441,2056,2056
160,444,2058,2058
161,447,2060,2060
162,450,2063,2063
163,452,2067,2067
164,455,2070,2070
165,458,2075,2075
166,461,2080,2080
167,463,2085,2085
168,466,2091,2091
169,469,2097,2097
170,472,2103,2103
171,475,2109,2109
172,477,2115,2115
173,480,2120,2120
174,483,2125,2125
175,486,2130,2130
176,488,2133,2133
177,491,2136,2136
178,494,2137,2137
179,497,2138,2138
180,500,2137,2137
181,502,2136,2136
182,505,2133,2133
183,508,2130,2130
184,511,2125,2125
185,513,2120,2120
186,516,2115,2115
187,519,2109,2109
188,522,2103,2103
189,525,2097,2097
190,527,2091,2091
191,530,2085,2085
192,533,2080,2080
193,536,2075,2075
194,538,2070,2070
195,541,2067,2067
196,544,2063,2063
197,547,2060,2060
198,550,2058,2058
199,552,2056,2056
200,555,2054,2054
201,558,2053,2053
202,561,2051,2051
203,563,2051,2051
204,566,2050,2050
205,569,2049,2049
206,572,2049,2049
207,575,2048,2048
208,577,2048,2048
209,580,2048,2048
210,583,2048,2048
211,586,2048,2048
212,588,2048,2048
213,591,2048,2048
214,594,2048,2048
215,597,2048,2048
216,600,2048,2048
217,602,2048,2048
218,605,2048,2048
219,608,2048,2048
220,611,2048,2048
221,613,2048,2048
222,616,2048,2048
223,619,2048,2048
224,622,2048,2048
225,625,2048,2048
226,627,2048,2048
227,630,2048,2048
228,633,2048,2048
229,636,2048,2048
230,638,2048,2048
231,641,2048,2048
232,644,2048,2048
233,647,2048,2048
234,650,2048,2048
235,652,2048,2048
236,655,2048,2048
237,658,2048,2048
238,661,2048,2048
239,663,2048,2048
240,666,2048,2048
241,669,2048,2048
242,672,2048,2048
243,675,2048,2048
244,677,2048,2048
245,680,2048,2048
246,683,2048,2048
247,686,2048,2048
248,688,2048,2048
249,691,2048,2048
250,694,2048,2048
251,697,2048,2048
252,700,2048,2048
253,702,2048,2048
254,705,2048,2048
255,708,2048,2048
256,711,2048,2048
257,713,2048,2048
258,716,2048,2048
259,719,2048,2048
260,722,2048,2048
261,725,2048,2048
262,727,2048,2048
263,730,2048,2048
264,733,2048,2048
265,736,2048,2048
266,738,2048,2048
267,741,2048,2048
268,744,2048,2048
269,747,2048,2048
270,750,2048,2048
271,752,2048,2048
272,755,2048,2048
273,758,2048,2048
274,761,2048,2048
275,763,2048,2048
276,766,2048,2048
277,769,2048,2048
278,772,2048,2048
279,775,2048,2048
280,777,2048,2048
281,780,2048,2048
282,783,2048,2048
283,786,2048,2048
284,788,2048,2048
285,791,2048,2048
286,794,2048,2048
287,797,2048,2048
288,800,2048,2048
289,802,2048,2048
290,805,2048,2048
291,808,2048,2048
292,811,2048,2048
293,813,2048,2048
294,816,2048,2048
295,819,2048,2048
296,822,2048,2048
297,825,2048,2048
298,827,2048,2048
299,830,2048,2048
300,833,2048,2048
301,836,2048,2048
302,838,2048,2048
303,841,2048,2048
304,844,2048,2048
305,847,2048,2048
306,850,2048,2048
307,852,2048,2048
308,855,2048,2048
309,858,2048,2048
310,861,2048,2048
311,863,2048,2048
312,866,2048,2048
313,869,2048,2048
314,872,2049,2049
315,875,2049,2049
316,877,2050,2050
317,880,2051,2051
318,883,2052,2052
319,886,2054,2054
320,888,2057,2057
321,891,2060,2060
322,894,2064,2064
323,897,2069,2069
324,900,2074,2074
325,902,2080,2080
326,905,2086,2086
327,908,2091,2091
328,911,2096,2096
329,913,2100,2100
330,916,2102,2102
331,919,2103,2103
332,922,2102,2102
333,925,2100,2100
334,927,2096,2096
335,930,2091,2091
336,933,2086,2086
337,936,2080,2080
338,938,2074,2074
339,941,2069,2069
340,944,2064,2064
341,947,2060,2060
342,950,2057,2057
343,952,2054,2054
344,955,2052,2052
345,958,2051,2051
346,961,2050,2050
347,963,2049,2049
348,966,2049,2049
349,969,2048,2048
350,972,2048,2048
351,975,2048,2048
352,977,2048,2048
353,980,2048,2048
354,983,2048,2048
355,986,2048,2048
356,988,2048,2048
357,991,2048,2048
358,994,2048,2048
359,997,2048,2048
360,1000,2048,2048
361,1002,2048,2048
362,1005,2048,2048
363,1008,2048,2048
364,1011,2048,2048
365,1013,2048,2048
366,1016,2048,2048
367,1019,2051,2051
368,1022,2052,2052
369,1025,2055,2055
370,1027,2058,2058
371,1030,2063,2063
372,1033,2069,2069
373,1036,2078,2078
374,1038,2089,2089
375,1041,2103,2103
376,1044,2120,2120
377,1047,2141,2141
378,1050,2165,2165
379,1052,2192,2192
380,1055,2221,2221
381,1058,2252,2252
382,1061,2284,2284
383,1063,2314,2314
384,1066,2342,2342
385,1069,2365,2365
386,1072,2383,2383
387,1075,2394,2394
388,1077,2398,2398
389,1080,2394,2394
390,1083,2383,2383
391,1086,2365,2365
392,1088,2342,2342
393,1091,2314,2314
394,1094,2284,2284
395,1097,2252,2252
396,1100,2221,2221
397,1102,2192,2192
398,1105,2165,2165
399,1108,2141,2141
400,1111,2120,2120
401,1113,2103,2103
402,1116,2089,2089
403,1119,2078,2078
404,1122,2069,2069
405,1125,2063,2063
406,1127,2058,2058
407,1130,2055,2055
408,1133,2052,2052
409,1136,2048,2048
410,1138,2048,2048
411,1141,2048,2048
412,1144,2048,2048
413,1147,2048,2048
414,1150,2048,2048
415,1152,2048,2048
416,1155,2048,2048
417,1158,2048,2048
418,1161,2048,2048
419,1163,2048,2048
420,1166,2048,2048
421,1169,2048,2048
422,1172,2048,2048
423,1175,2048,2048
424,1177,2048,2048
425,1180,2048,2048
426,1183,2048,2048
427,1186,2048,2048
428,1188,2048,2048
429,1191,2048,2048
430,1194,2048,2048
431,1197,2048,2048
432,1200,2048,2048
433,1202,2048,2048
434,1205,2048,2048
435,1208,2048,2048
436,1211,2048,2048
437,1213,2048,2048
438,1216,2048,2048
439,1219,2049,2049
440,1222,2049,2049
441,1225,2049,2049
442,1227,2050,2050
443,1230,2051,2051
444,1233,2051,2051
445,1236,2053,2053
446,1238,2054,2054
447,1241,2056,2056
448,1244,2058,2058
449,1247,2060,2060
450,1250,2063,2063
451,1252,2067,2067
452,1255,2070,2070
453,1258,2075,2075
454,1261,2080,2080
455,1263,2085,2085
456,1266,2091,2091
457,1269,2097,2097
458,1272,2103,2103
459,1275,2109,2109
460,1277,2115,2115
461,1280,2120,2120
462,1283,2125,2125
463,1286,2130,2130
464,1288,2133,2133
465,1291,2136,2136
466,1294,2137,2137
467,1297,2138,2138
468,1300,2137,2137
469,1302,2136,2136
470,1305,2133,2133
471,1308,2130,2130
472,1311,2125,2125
473,1313,2120,2120
474,1316,2115,2115
475,1319,2109,2109
476,1322,2103,2103
477,1325,2097,2097
478,1327,2091,2091
479,1330,2085,2085
480,1333,2080,2080
481,1336,2075,2075
482,1338,2070,2070
483,1341,2067,2067
484,1344,2063,2063
485,1347,2060,2060
486,1350,2058,2058
487,1352,2056,2056
488,1355,2054,2054
489,1358,2053,2053
490,1361,2051,2051
491,1363,2051,2051
492,1366,2050,2050
493,1369,2049,2049
494,1372,2049,2049
495,1375,2048,2048
496,1377,2048,2048
497,1380,2048,2048
498,1383,2048,2048
499,1386,2048,2048
500,1388,2048,2048
501,1391,2048,2048
502,1394,2048,2048
503,1397,2048,2048
504,1400,2048,2048
505,1402,2048,2048
506,1405,2048,2048
507,1408,2048,2048
508,1411,2048,2048
509,1413,2048,2048
510,1416,2048,2048
511,1419,2048,2048
512,1422,2048,2048
513,1425,2048,2048
514,1427,2048,2048
515,1430,2048,2048
516,1433,2048,2048
517,1436,2048,2048
518,1438,2048,2048
519,1441,2048,2048
520,1444,2048,2048
521,1447,2048,2048
522,1450,2048,2048
523,1452,2048,2048
524,1455,2048,2048
525,1458,2048,2048
526,1461,2048,2048
527,1463,2048,2048
528,1466,2048,2048
529,1469,2048,2048
530,1472,2048,2048
531,1475,2048,2048
532,1477,2048,2048
533,1480,2048,2048
534,1483,2048,2048
535,1486,2048,2048
536,1488,2048,2048
537,1491,2048,2048
538,1494,2048,2048
539,1497,2048,2048
540,1500,2048,2048
541,1502,2048,2048
542,1505,2048,2048
543,1508,2048,2048
544,1511,2048,2048
545,1513,2048,2048
546,1516,2048,2048
547,1519,2048,2048
548,1522,2048,2048
549,1525,2048,2048
550,1527,2048,2048
551,1530,2048,2048
552,1533,2048,2048
553,1536,2048,2048
554,1538,2048,2048
555,1541,2048,2048
556,1544,2048,2048
557,1547,2048,2048
558,1550,2048,2048
559,1552,2048,2048
560,1555,2048,2048
561,1558,2048,2048
562,1561,2048,2048
563,1563,2048,2048
564,1566,2048,2048
565,1569,2048,2048
566,1572,2048,2048
567,1575,2048,2048
568,1577,2048,2048
569,1580,2048,2048
570,1583,2048,2048
571,1586,2048,2048
572,1588,2048,2048
573,1591,2048,2048
574,1594,2048,2048
575,1597,2048,2048
576,1600,2048,2048
577,1602,2048,2048
578,1605,2048,2048
579,1608,2048,2048
580,1611,2048,2048
581,1613,2048,2048
582,1616,2048,2048
583,1619,2048,2048
584,1622,2048,2048
585,1625,2048,2048
586,1627,2048,2048
587,1630,2048,2048
588,1633,2048,2048
589,1636,2048,2048
590,1638,2048,2048
591,1641,2048,2048
592,1644,2048,2048
593,1647,2048,2048
594,1650,2048,2048
595,1652,2048,2048
596,1655,2048,2048
597,1658,2048,2048
598,1661,2048,2048
599,1663,2048,2048
600,1666,2048,2048
601,1669,2048,2048
602,1672,2049,2049
603,1675,2049,2049
604,1677,2050,2050
605,1680,2051,2051
606,1683,2052,2052
607,1686,2054,2054
608,1688,2057,2057
609,1691,2060,2060
610,1694,2064,2064
611,1697,2069,2069
612,1700,2074,2074
613,1702,2080,2080
614,1705,2086,2086
615,1708,2091,2091
616,1711,2096,2096
617,1713,2100,2100
618,1716,2102,2102
619,1719,2103,2103
620,1722,2102,2102
621,1725,2100,2100
622,1727,2096,2096
623,1730,2091,2091
624,1733,2086,2086
625,1736,2080,2080
626,1738,2074,2074
627,1741,2069,2069
628,1744,2064,2064
629,1747,2060,2060
630,1750,2057,2057
631,1752,2054,2054
632,1755,2052,2052
633,1758,2051,2051
634,1761,2050,2050
635,1763,2049,2049
636,1766,2049,2049
637,1769,2048,2048
638,1772,2048,2048
639,1775,2048,2048
640,1777,2048,2048
641,1780,2048,2048
642,1783,2048,2048
643,1786,2048,2048
644,1788,2048,2048
645,1791,2048,2048
646,1794,2048,2048
647,1797,2048,2048
648,1800,2048,2048
649,1802,2048,2048
650,1805,2048,2048
651,1808,2048,2048
652,1811,2048,2048
653,1813,2048,2048
654,1816,2048,2048
655,1819,2051,2051
656,1822,2052,2052
657,1825,2055,2055
658,1827,2058,2058
659,1830,2063,2063
660,1833,2069,2069
661,1836,2078,2078
662,1838,2089,2089
663,1841,2103,2103
664,1844,2120,2120
665,1847,2141,2141
666,1850,2165,2165
667,1852,2192,2192
668,1855,2221,2221
669,1858,2252,2252
670,1861,2284,2284
671,1863,2314,2314
672,1866,2342,2342
673,1869,2365,2365
674,1872,2383,2383
675,1875,2394,2394
676,1877,2398,2398
677,1880,2394,2394
678,1883,2383,2383
679,1886,2365,2365
680,1888,2342,2342
681,1891,2314,2314
682,1894,2284,2284
683,1897,2252,2252
684,1900,2221,2221
685,1902,2192,2192
686,1905,2165,2165
687,1908,2141,2141
688,1911,2120,2120
689,1913,2103,2103
690,1916,2089,2089
691,1919,2078,2078
692,1922,2069,2069
693,1925,2063,2063
694,1927,2058,2058
695,1930,2055,2055
696,1933,2052,2052
697,1936,2048,2048
698,1938,2048,2048
699,1941,2048,2048
700,1944,2048,2048
701,1947,2048,2048
702,1950,2048,2048
703,1952,2048,2048
704,1955,2048,2048
705,1958,2048,2048
706,1961,2048,2048
707,1963,2048,2048
708,1966,2048,2048
709,1969,2048,2048
710,1972,2048,2048
711,1975,2048,2048
712,1977,2048,2048
713,1980,2048,2048
714,1983,2048,2048
715,1986,2048,2048
716,1988,2048,2048
717,1991,2048,2048
718,1994,2048,2048
719,1997,2048,2048
720,2000,2048,2048
721,2002,2048,2048
722,2005,2048,2048
723,2008,2048,2048
724,2011,2048,2048
725,2013,2048,2048
726,2016,2048,2048
727,2019,2049,2049
728,2022,2049,2049
729,2025,2049,2049
730,2027,2050,2050
731,2030,2051,2051
732,2033,2051,2051
733,2036,2053,2053
734,2038,2054,2054
735,2041,2056,2056
736,2044,2058,2058
737,2047,2060,2060
738,2050,2063,2063
739,2052,2067,2067
740,2055,2070,2070
741,2058,2075,2075
742,2061,2080,2080
743,2063,2085,2085
744,2066,2091,2091
745,2069,2097,2097
746,2072,2103,2103
747,2075,2109,2109
748,2077,2115,2115
749,2080,2120,2120
750,2083,2125,2125
751,2086,2130,2130
752,2088,2133,2133
753,2091,2136,2136
754,2094,2137,2137
755,2097,2138,2138
756,2100,2137,2137
757,2102,2136,2136
758,2105,2133,2133
759,2108,2130,2130
760,2111,2125,2125
761,2113,2120,2120
762,2116,2115,2115
763,2119,2109,2109
764,2122,2103,2103
765,2125,2097,2097
766,2127,2091,2091
767,2130,2085,2085
768,2133,2080,2080
769,2136,2075,2075
770,2138,2070,2070
771,2141,2067,2067
772,2144,2063,2063
773,2147,2060,2060
774,2150,2058,2058
775,2152,2056,2056
776,2155,2054,2054
777,2158,2053,2053
778,2161,2051,2051
779,2163,2051,2051
780,2166,2050,2050
781,2169,2049,2049
782,2172,2049,2049
783,2175,2048,2048
784,2177,2048,2048
785,2180,2048,2048
786,2183,2048,2048
787,2186,2048,2048
788,2188,2048,2048
789,2191,2048,2048
790,2194,2048,2048
791,2197,2048,2048
792,2200,2048,2048
793,2202,2048,2048
794,2205,2048,2048
795,2208,2048,2048
796,2211,2048,2048
797,2213,2048,2048
798,2216,2048,2048
799,2219,2048,2048
800,2222,2048,2048
801,2225,2048,2048
802,2227,2048,2048
803,2230,2048,2048
804,2233,2048,2048
805,2236,2048,2048
806,2238,2048,2048
807,2241,2048,2048
808,2244,2048,2048
809,2247,2048,2048
810,2250,2048,2048
811,2252,2048,2048
812,2255,2048,2048
813,2258,2048,2048
814,2261,2048,2048
815,2263,2048,2048
816,2266,2048,2048
817,2269,2048,2048
818,2272,2048,2048
819,2275,2048,2048
820,2277,2048,2048
821,2280,2048,2048
822,2283,2048,2048
823,2286,2048,2048
824,2288,2048,2048
825,2291,2048,2048
826,2294,2048,2048
827,2297,2048,2048
828,2300,2048,2048
829,2302,2048,2048
830,2305,2048,2048
831,2308,2048,2048
832,2311,2048,2048
833,2313,2048,2048
834,2316,2048,2048
835,2319,2048,2048
836,2322,2048,2048
837,2325,2048,2048
838,2327,2048,2048
839,2330,2048,2048
840,2333,2048,2048
841,2336,2048,2048
842,2338,2048,2048
843,2341,2048,2048
844,2344,2048,2048
845,2347,2048,2048
846,2350,2048,2048
847,2352,2048,2048
848,2355,2048,2048
849,2358,2048,2048
850,2361,2048,2048
851,2363,2048,2048
852,2366,2048,2048
853,2369,2048,2048
854,2372,2048,2048
855,2375,2048,2048
856,2377,2048,2048
857,2380,2048,2048
858,2383,2048,2048
859,2386,2048,2048
860,2388,2048,2048
861,2391,2048,2048
862,2394,2048,2048
863,2397,2048,2048
864,2400,2048,2048
865,2402,2048,2048
866,2405,2048,2048
867,2408,2048,2048
868,2411,2048,2048
869,2413,2048,2048
870,2416,2048,2048
871,2419,2048,2048
872,2422,2048,2048
873,2425,2048,2048
874,2427,2048,2048
875,2430,2048,2048
876,2433,2048,2048
877,2436,2048,2048
878,2438,2048,2048
879,2441,2048,2048
880,2444,2048,2048
881,2447,2048,2048
882,2450,2048,2048
883,2452,2048,2048
884,2455,2048,2048
885,2458,2048,2048
886,2461,2048,2048
887,2463,2048,2048
888,2466,2048,2048
889,2469,2048,2048
890,2472,2049,2049
891,2475,2049,2049
892,2477,2050,2050
893,2480,2051,2051
894,2483,2052,2052
895,2486,2054,2054
896,2488,2057,2057
897,2491,2060,2060
898,2494,2064,2064
899,2497,2069,2069
900,2500,2074,2074
901,2502,2080,2080
902,2505,2086,2086
903,2508,2091,2091
904,2511,2096,2096
905,2513,2100,2100
906,2516,2102,2102
907,2519,2103,2103
908,2522,2102,2102
909,2525,2100,2100
910,2527,2096,2096
911,2530,2091,2091
912,2533,2086,2086
913,2536,2080,2080
914,2538,2074,2074
915,2541,2069,2069
916,2544,2064,2064
917,2547,2060,2060
918,2550,2057,2057
919,2552,2054,2054
920,2555,2052,2052
921,2558,2051,2051
922,2561,2050,2050
923,2563,2049,2049
924,2566,2049,2049
925,2569,2048,2048
926,2572,2048,2048
927,2575,2048,2048
928,2577,2048,2048
929,2580,2048,2048
930,2583,2048,2048
931,2586,2048,2048
932,2588,2048,2048
933,2591,2048,2048
934,2594,2048,2048
935,2597,2048,2048
936,2600,2048,2048
937,2602,2048,2048
938,2605,2048,2048
939,2608,2048,2048
940,2611,2048,2048
941,2613,2048,2048
942,2616,2048,2048
943,2619,2051,2051
944,2622,2052,2052
945,2625,2055,2055
946,2627,2058,2058
947,2630,2063,2063
948,2633,2069,2069
949,2636,2078,2078
950,2638,2089,2089
951,2641,2103,2103
952,2644,2120,2120
953,2647,2141,2141
954,2650,2165,2165
955,2652,2192,2192
956,2655,2221,2221
957,2658,2252,2252
958,2661,2284,2284
959,2663,2314,2314
960,2666,2342,2342
961,2669,2365,2365
962,2672,2383,2383
963,2675,2394,2394
964,2677,2398,2398
965,2680,2394,2394
966,2683,2383,2383
967,2686,2365,2365
968,2688,2342,2342
969,2691,2314,2314
970,2694,2284,2284
971,2697,2252,2252
972,2700,2221,2221
973,2702,2192,2192
974,2705,2165,2165
975,2708,2141,2141
976,2711,2120,2120
977,2713,2103,2103
978,2716,2089,2089
979,2719,2078,2078
980,2722,2069,2069
981,2725,2063,2063
982,2727,2058,2058
983,2730,2055,2055
984,2733,2052,2052
985,2736,2048,2048
986,2738,2048,2048
987,2741,2048,2048
988,2744,2048,2048
989,2747,2048,2048
990,2750,2048,2048
991,2752,2048,2048
992,2755,2048,2048
993,2758,2048,2048
994,2761,2048,2048
995,2763,2048,2048
996,2766,2048,2048
997,2769,2048,2048
998,2772,2048,2048
999,2775,2048,2048
1000,2777,2048,2048
1001,2780,2048,2048
1002,2783,2048,2048
1003,2786,2048,2048
1004,2788,2048,2048
1005,2791,2048,2048
1006,2794,2048,2048
1007,2797,2048,2048
1008,2800,2048,2048
1009,2802,2048,2048
1010,2805,2048,2048
1011,2808,2048,2048
1012,2811,2048,2048
1013,2813,2048,2048
1014,2816,2048,2048
1015,2819,2049,2049
1016,2822,2049,2049
1017,2825,2049,2049
1018,2827,2050,2050
1019,2830,2051,2051
1020,2833,2051,2051
1021,2836,2053,2053
1022,2838,2054,2054
1023,2841,2056,2056
1024,2844,2058,2058
1025,2847,2060,2060
1026,2850,2063,2063
1027,2852,2067,2067
1028,2855,2070,2070
1029,2858,2075,2075
1030,2861,2080,2080
1031,2863,2085,2085
1032,2866,2091,2091
1033,2869,2097,2097
1034,2872,2103,2103
1035,2875,2109,2109
1036,2877,2115,2115
1037,2880,2120,2120
1038,2883,2125,2125
1039,2886,2130,2130
1040,2888,2133,2133
1041,2891,2136,2136
1042,2894,2137,2137
1043,2897,2138,2138
1044,2900,2137,2137
1045,2902,2136,2136
1046,2905,2133,2133
1047,2908,2130,2130
1048,2911,2125,2125
1049,2913,2120,2120
1050,2916,2115,2115
1051,2919,2109,2109
1052,2922,2103,2103
1053,2925,2097,2097
1054,2927,2091,2091
1055,2930,2085,2085
1056,2933,2080,2080
1057,2936,2075,2075
1058,2938,2070,2070
1059,2941,2067,2067
1060,2944,2063,2063
1061,2947,2060,2060
1062,2950,2058,2058
1063,2952,2056,2056
1064,2955,2054,2054
1065,2958,2053,2053
1066,2961,2051,2051
1067,2963,2051,2051
1068,2966,2050,2050
1069,2969,2049,2049
1070,2972,2049,2049
1071,2975,2048,2048
1072,2977,2048,2048
1073,2980,2048,2048
1074,2983,2048,2048
1075,2986,2048,2048
1076,2988,2048,2048
1077,2991,2048,2048
1078,2994,2048,2048
1079,2997,2048,2048
1080,3000,2048,2048
1081,3002,2048,2048
1082,3005,2048,2048
1083,3008,2048,2048
1084,3011,2048,2048
1085,3013,2048,2048
1086,3016,2048,2048
1087,3019,2048,2048
1088,3022,2048,2048
1089,3025,2048,2048
1090,3027,2048,2048
1091,3030,2048,2048
1092,3033,2048,2048
1093,3036,2048,2048
1094,3038,2048,2048
1095,3041,2048,2048
1096,3044,2048,2048
1097,3047,2048,2048
1098,3050,2048,2048
1099,3052,2048,2048
1100,3055,2048,2048
1101,3058,2048,2048
1102,3061,2048,2048
1103,3063,2048,2048
1104,3066,2048,2048
1105,3069,2048,2048
1106,3072,2048,2048
1107,3075,2048,2048
1108,3077,2048,2048
1109,3080,2048,2048
1110,3083,2048,2048
1111,3086,2048,2048
1112,3088,2048,2048
1113,3091,2048,2048
1114,3094,2048,2048
1115,3097,2048,2048
1116,3100,2048,2048
1117,3102,2048,2048
1118,3105,2048,2048
1119,3108,2048,2048
1120,3111,2048,2048
1121,3113,2048,2048
1122,3116,2048,2048
1123,3119,2048,2048
1124,3122,2048,2048
1125,3125,2048,2048
1126,3127,2048,2048
1127,3130,2048,2048
1128,3133,2048,2048
1129,3136,2048,2048
1130,3138,2048,2048
1131,3141,2048,2048
1132,3144,2048,2048
1133,3147,2048,2048
1134,3150,2048,2048
1135,3152,2048,2048
1136,3155,2048,2048
1137,3158,2048,2048
1138,3161,2048,2048
1139,3163,2048,2048
1140,3166,2048,2048
1141,3169,2048,2048
1142,3172,2048,2048
1143,3175,2048,2048
1144,3177,2048,2048
1145,3180,2048,2048
1146,3183,2048,2048
1147,3186,2048,2048
1148,3188,2048,2048
1149,3191,2048,2048
1150,3194,2048,2048
1151,3197,2048,2048
1152,3200,2048,2048
1153,3202,2048,2048
1154,3205,2048,2048
1155,3208,2048,2048
1156,3211,2048,2048
1157,3213,2048,2048
1158,3216,2048,2048
1159,3219,2048,2048
1160,3222,2048,2048
1161,3225,2048,2048
1162,3227,2048,2048
1163,3230,2048,2048
1164,3233,2048,2048
1165,3236,2048,2048
1166,3238,2048,2048
1167,3241,2048,2048
1168,3244,2048,2048
1169,3247,2048,2048
1170,3250,2048,2048
1171,3252,2048,2048
1172,3255,2048,2048
1173,3258,2048,2048
1174,3261,2048,2048
1175,3263,2048,2048
1176,3266,2048,2048
1177,3269,2048,2048
1178,3272,2049,2049
1179,3275,2049,2049
1180,3277,2050,2050
1181,3280,2051,2051
1182,3283,2052,2052
1183,3286,2054,2054
1184,3288,2057,2057
1185,3291,2060,2060
1186,3294,2064,2064
1187,3297,2069,2069
1188,3300,2074,2074
1189,3302,2080,2080
1190,3305,2086,2086
1191,3308,2091,2091
1192,3311,2096,2096
1193,3313,2100,2100
1194,3316,2102,2102
1195,3319,2103,2103
1196,3322,2102,2102
1197,3325,2100,2100
1198,3327,2096,2096
1199,3330,2091,2091
1200,3333,2086,2086
1201,3336,2080,2080
1202,3338,2074,2074
1203,3341,2069,2069
1204,3344,2064,2064
1205,3347,2060,2060
1206,3350,2057,2057
1207,3352,2054,2054
1208,3355,2052,2052
1209,3358,2051,2051
1210,3361,2050,2050
1211,3363,2049,2049
1212,3366,2049,2049
1213,3369,2048,2048
1214,3372,2048,2048
1215,3375,2048,2048
1216,3377,2048,2048
1217,3380,2048,2048
1218,3383,2048,2048
1219,3386,2048,2048
1220,3388,2048,2048
1221,3391,2048,2048
1222,3394,2048,2048
1223,3397,2048,2048
1224,3400,2048,2048
1225,3402,2048,2048
1226,3405,2048,2048
1227,3408,2048,2048
1228,3411,2048,2048
1229,3413,2048,2048
1230,3416,2048,2048
1231,3419,2051,2051
1232,3422,2052,2052
1233,3425,2055,2055
1234,3427,2058,2058
1235,3430,2063,2063
1236,3433,2069,2069
1237,3436,2078,2078
1238,3438,2089,2089
1239,3441,2103,2103
1240,3444,2120,2120
1241,3447,2141,2141
1242,3450,2165,2165
1243,3452,2192,2192
1244,3455,2221,2221
1245,3458,2252,2252
1246,3461,2284,2284
1247,3463,2314,2314
1248,3466,2342,2342
1249,3469,2365,2365
1250,3472,2383,2383
1251,3475,2394,2394
1252,3477,2398,2398
1253,3480,2394,2394
1254,3483,2383,2383
1255,3486,2365,2365
1256,3488,2342,2342
1257,3491,2314,2314
1258,3494,2284,2284
1259,3497,2252,2252
1260,3500,2221,2221
1261,3502,2192,2192
1262,3505,2165,2165
1263,3508,2141,2141
1264,3511,2120,2120
1265,3513,2103,2103
1266,3516,2089,2089
1267,3519,2078,2078
1268,3522,2069,2069
1269,3525,2063,2063
1270,3527,2058,2058
1271,3530,2055,2055
1272,3533,2052,2052
1273,3536,2048,2048
1274,3538,2048,2048
1275,3541,2048,2048
1276,3544,2048,2048
1277,3547,2048,2048
1278,3550,2048,2048
1279,3552,2048,2048
1280,3555,2048,2048
1281,3558,2048,2048
1282,3561,2048,2048
1283,3563,2048,2048
1284,3566,2048,2048
1285,3569,2048,2048
1286,3572,2048,2048
1287,3575,2048,2048
1288,3577,2048,2048
1289,3580,2048,2048
1290,3583,2048,2048
1291,3586,2048,2048
1292,3588,2048,2048
1293,3591,2048,2048
1294,3594,2048,2048
1295,3597,2048,2048
1296,3600,2048,2048
1297,3602,2048,2048
1298,3605,2048,2048
1299,3608,2048,2048
1300,3611,2048,2048
1301,3613,2048,2048
1302,3616,2048,2048
1303,3619,2049,2049
1304,3622,2049,2049
1305,3625,2049,2049
1306,3627,2050,2050
1307,3630,2051,2051
1308,3633,2051,2051
1309,3636,2053,2053
1310,3638,2054,2054
1311,3641,2056,2056
1312,3644,2058,2058
1313,3647,2060,2060
1314,3650,2063,2063
1315,3652,2067,2067
1316,3655,2070,2070
1317,3658,2075,2075
1318,3661,2080,2080
1319,3663,2085,2085
1320,3666,2091,2091
1321,3669,2097,2097
1322,3672,2103,2103
1323,3675,2109,2109
1324,3677,2115,2115
1325,3680,2120,2120
1326,3683,2125,2125
1327,3686,2130,2130
1328,3688,2133,2133
1329,3691,2136,2136
1330,3694,2137,2137
1331,3697,2138,2138
1332,3700,2137,2137
1333,3702,2136,2136
1334,3705,2133,2133
1335,3708,2130,2130
1336,3711,2125,2125
1337,3713,2120,2120
1338,3716,2115,2115
1339,3719,2109,2109
1340,3722,2103,2103
1341,3725,2097,2097
1342,3727,2091,2091
1343,3730,2085,2085
1344,3733,2080,2080
1345,3736,2075,2075
1346,3738,2070,2070
1347,3741,2067,2067
1348,3744,2063,2063
1349,3747,2060,2060
1350,3750,2058,2058
1351,3752,2056,2056
1352,3755,2054,2054
1353,3758,2053,2053
1354,3761,2051,2051
1355,3763,2051,2051
1356,3766,2050,2050
1357,3769,2049,2049
1358,3772,2049,2049
1359,3775,2048,2048
1360,3777,2048,2048
1361,3780,2048,2048
1362,3783,2048,2048
1363,3786,2048,2048
1364,3788,2048,2048
1365,3791,2048,2048
1366,3794,2048,2048
1367,3797,2048,2048
1368,3800,2048,2048
1369,3802,2048,2048
1370,3805,2048,2048
1371,3808,2048,2048
1372,3811,2048,2048
1373,3813,2048,2048
1374,3816,2048,2048
1375,3819,2048,2048
1376,3822,2048,2048
1377,3825,2048,2048
1378,3827,2048,2048
1379,3830,2048,2048
1380,3833,2048,2048
1381,3836,2048,2048
1382,3838,2048,2048
1383,3841,2048,2048
1384,3844,2048,2048
1385,3847,2048,2048
1386,3850,2048,2048
1387,3852,2048,2048
1388,3855,2048,2048
1389,3858,2048,2048
1390,3861,2048,2048
1391,3863,2048,2048
1392,3866,2048,2048
1393,3869,2048,2048
1394,3872,2048,2048
1395,3875,2048,2048
1396,3877,2048,2048
1397,3880,2048,2048
1398,3883,2048,2048
1399,3886,2048,2048
1400,3888,2048,2048
1401,3891,2048,2048
1402,3894,2048,2048
1403,3897,2048,2048
1404,3900,2048,2048
1405,3902,2048,2048
1406,3905,2048,2048
1407,3908,2048,2048
1408,3911,2048,2048
1409,3913,2048,2048
1410,3916,2048,2048
1411,3919,2048,2048
1412,3922,2048,2048
1413,3925,2048,2048
1414,3927,2048,2048
1415,3930,2048,2048
1416,3933,2048,2048
1417,3936,2048,2048
1418,3938,2048,2048
1419,3941,2048,2048
1420,3944,2048,2048
1421,3947,2048,2048
1422,3950,2048,2048
1423,3952,2048,2048
1424,3955,2048,2048
1425,3958,2048,2048
1426,3961,2048,2048
1427,3963,2048,2048
1428,3966,2048,2048
1429,3969,2048,2048
1430,3972,2048,2048
1431,3975,2048,2048
1432,3977,2048,2048
1433,3980,2048,2048
1434,3983,2048,2048
1435,3986,2048,2048
1436,3988,2048,2048
1437,3991,2048,2048
1438,3994,2048,2048
1439,3997,2048,2048
1440,4000,2048,2048
1441,4002,2048,2048
1442,4005,2048,2048
1443,4008,2048,2048
1444,4011,2048,2048
1445,4013,2048,2048
1446,4016,2048,2048
1447,4019,2048,2048
1448,4022,2048,2048
1449,4025,2048,2048
1450,4027,2048,2048
1451,4030,2048,2048
1452,4033,2048,2048
1453,4036,2048,2048
1454,4038,2048,2048
1455,4041,2048,2048
1456,4044,2048,2048
1457,4047,2048,2048
1458,4050,2048,2048
1459,4052,2048,2048
1460,4055,2048,2048
1461,4058,2048,2048
1462,4061,2048,2048
1463,4063,2048,2048
1464,4066,2048,2048
1465,4069,2048,2048
1466,4072,2049,2049
1467,4075,2049,2049
1468,4077,2050,2050
1469,4080,2051,2051
1470,4083,2052,2052
1471,4086,2054,2054
1472,4088,2057,2057
1473,4091,2060,2060
1474,4094,2064,2064
1475,4097,2069,2069
1476,4100,2074,2074
1477,4102,2080,2080
1478,4105,2086,2086
1479,4108,2091,2091
1480,4111,2096,2096
1481,4113,2100,2100
1482,4116,2102,2102
1483,4119,2103,2103
1484,4122,2102,2102
1485,4125,2100,2100
1486,4127,2096,2096
1487,4130,2091,2091
1488,4133,2086,2086
1489,4136,2080,2080
1490,4138,2074,2074
1491,4141,2069,2069
1492,4144,2064,2064
1493,4147,2060,2060
1494,4150,2057,2057
1495,4152,2054,2054
1496,4155,2052,2052
1497,4158,2051,2051
1498,4161,2050,2050
1499,4163,2049,2049
1500,4166,2049,2049
1501,4169,2048,2048
1502,4172,2048,2048
1503,4175,2048,2048
1504,4177,2048,2048
1505,4180,2048,2048
1506,4183,2048,2048
1507,4186,2048,2048
1508,4188,2048,2048
1509,4191,2048,2048
1510,4194,2048,2048
1511,4197,2048,2048
1512,4200,2048,2048
1513,4202,2048,2048
1514,4205,2048,2048
1515,4208,2048,2048
1516,4211,2048,2048
1517,4213,2048,2048
1518,4216,2048,2048
1519,4219,2051,2051
1520,4222,2052,2052
1521,4225,2055,2055
1522,4227,2058,2058
1523,4230,2063,2063
1524,4233,2069,2069
1525,4236,2078,2078
1526,4238,2089,2089
1527,4241,2103,2103
1528,4244,2120,2120
1529,4247,2141,2141
1530,4250,2165,2165
1531,4252,2192,2192
1532,4255,2221,2221
1533,4258,2252,2252
1534,4261,2284,2284
1535,4263,2314,2314
1536,4266,2342,2342
1537,4269,2365,2365
1538,4272,2383,2383
1539,4275,2394,2394
1540,4277,2398,2398
1541,4280,2394,2394
1542,4283,2383,2383
1543,4286,2365,2365
1544,4288,2342,2342
1545,4291,2314,2314
1546,4294,2284,2284
1547,4297,2252,2252
1548,4300,2221,2221
1549,4302,2192,2192
1550,4305,2165,2165
1551,4308,2141,2141
1552,4311,2120,2120
1553,4313,2103,2103
1554,4316,2089,2089
1555,4319,2078,2078
1556,4322,2069,2069
1557,4325,2063,2063
1558,4327,2058,2058
1559,4330,2055,2055
1560,4333,2052,2052
1561,4336,2048,2048
1562,4338,2048,2048
1563,4341,2048,2048
1564,4344,2048,2048
1565,4347,2048,2048
1566,4350,2048,2048
1567,4352,2048,2048
1568,4355,2048,2048
1569,4358,2048,2048
1570,4361,2048,2048
1571,4363,2048,2048
1572,4366,2048,2048
1573,4369,2048,2048
1574,4372,2048,2048
1575,4375,2048,2048
1576,4377,2048,2048
1577,4380,2048,2048
1578,4383,2048,2048
1579,4386,2048,2048
1580,4388,2048,2048
1581,4391,2048,2048
1582,4394,2048,2048
1583,4397,2048,2048
1584,4400,2048,2048
1585,4402,2048,2048
1586,4405,2048,2048
1587,4408,2048,2048
1588,4411,2048,2048
1589,4413,2048,2048
1590,4416,2048,2048
1591,4419,2049,2049
1592,4422,2049,2049
1593,4425,2049,2049
1594,4427,2050,2050
1595,4430,2051,2051
1596,4433,2051,2051
1597,4436,2053,2053
1598,4438,2054,2054
1599,4441,2056,2056
1600,4444,2058,2058
1601,4447,2060,2060
1602,4450,2063,2063
1603,4452,2067,2067
1604,4455,2070,2070
1605,4458,2075,2075
1606,4461,2080,2080
1607,4463,2085,2085
1608,4466,2091,2091
1609,4469,2097,2097
1610,4472,2103,2103
1611,4475,2109,2109
1612,4477,2115,2115
1613,4480,2120,2120
1614,4483,2125,2125
1615,4486,2130,2130
1616,4488,2133,2133
1617,4491,2136,2136
1618,4494,2137,2137
1619,4497,2138,2138
1620,4500,2137,2137
1621,4502,2136,2136
1622,4505,2133,2133
1623,4508,2130,2130
1624,4511,2125,2125
1625,4513,2120,2120
1626,4516,2115,2115
1627,4519,2109,2109
1628,4522,2103,2103
1629,4525,2097,2097
1630,4527,2091,2091
1631,4530,2085,2085
1632,4533,2080,2080
1633,4536,2075,2075
1634,4538,2070,2070
1635,4541,2067,2067
1636,4544,2063,2063
1637,4547,2060,2060
1638,4550,2058,2058
1639,4552,2056,2056
1640,4555,2054,2054
1641,4558,2053,2053
1642,4561,2051,2051
1643,4563,2051,2051
1644,4566,2050,2050
1645,4569,2049,2049
1646,4572,2049,2049
1647,4575,2048,2048
1648,4577,2048,2048
1649,4580,2048,2048
1650,4583,2048,2048
1651,4586,2048,2048
1652,4588,2048,2048
1653,4591,2048,2048
1654,4594,2048,2048
1655,4597,2048,2048
1656,4600,2048,2048
1657,4602,2048,2048
1658,4605,2048,2048
1659,4608,2048,2048
1660,4611,2048,2048
1661,4613,2048,2048
1662,4616,2048,2048
1663,4619,2048,2048
1664,4622,2048,2048
1665,4625,2048,2048
1666,4627,2048,2048
1667,4630,2048,2048
1668,4633,2048,2048
1669,4636,2048,2048
1670,4638,2048,2048
1671,4641,2048,2048
1672,4644,2048,2048
1673,4647,2048,2048
1674,4650,2048,2048
1675,4652,2048,2048
1676,4655,2048,2048
1677,4658,2048,2048
1678,4661,2048,2048
1679,4663,2048,2048
1680,4666,2048,2048
1681,4669,2048,2048
1682,4672,2048,2048
1683,4675,2048,2048
1684,4677,2048,2048
1685,4680,2048,2048
1686,4683,2048,2048
1687,4686,2048,2048
1688,4688,2048,2048
1689,4691,2048,2048
1690,4694,2048,2048
1691,4697,2048,2048
1692,4700,2048,2048
1693,4702,2048,2048
1694,4705,2048,2048
1695,4708,2048,2048
1696,4711,2048,2048
1697,4713,2048,2048
1698,4716,2048,2048
1699,4719,2048,2048
1700,4722,2048,2048
1701,4725,2048,2048
1702,4727,2048,2048
1703,4730,2048,2048
1704,4733,2048,2048
1705,4736,2048,2048
1706,4738,2048,2048
1707,4741,2048,2048
1708,4744,2048,2048
1709,4747,2048,2048
1710,4750,2048,2048
1711,4752,2048,2048
1712,4755,2048,2048
1713,4758,2048,2048
1714,4761,2048,2048
1715,4763,2048,2048
1716,4766,2048,2048
1717,4769,2048,2048
1718,4772,2048,2048
1719,4775,2048,2048
1720,4777,2048,2048
1721,4780,2048,2048
1722,4783,2048,2048
1723,4786,2048,2048
1724,4788,2048,2048
1725,4791,2048,2048
1726,4794,2048,2048
1727,4797,2048,2048
1728,4800,2048,2048
1729,4802,2048,2048
1730,4805,2048,2048
1731,4808,2048,2048
1732,4811,2048,2048
1733,4813,2048,2048
1734,4816,2048,2048
1735,4819,2048,2048
1736,4822,2048,2048
1737,4825,2048,2048
1738,4827,2048,2048
1739,4830,2048,2048
1740,4833,2048,2048
1741,4836,2048,2048
1742,4838,2048,2048
1743,4841,2048,2048
1744,4844,2048,2048
1745,4847,2048,2048
1746,4850,2048,2048
1747,4852,2048,2048
1748,4855,2048,2048
1749,4858,2048,2048
1750,4861,2048,2048
1751,4863,2048,2048
1752,4866,2048,2048
1753,4869,2048,2048
1754,4872,2048,2048
1755,4875,2048,2048
1756,4877,2048,2048
1757,4880,2048,2048
1758,4883,2048,2048
1759,4886,2048,2048
1760,4888,2048,2048
1761,4891,2048,2048
1762,4894,2048,2048
1763,4897,2048,2048
1764,4900,2048,2048
1765,4902,2048,2048
1766,4905,2048,2048
1767,4908,2048,2048
1768,4911,2048,2048
1769,4913,2048,2048
1770,4916,2048,2048
1771,4919,2048,2048
1772,4922,2048,2048
1773,4925,2048,2048
1774,4927,2048,2048
1775,4930,2048,2048
1776,4933,2048,2048
1777,4936,2048,2048
1778,4938,2048,2048
1779,4941,2048,2048
1780,4944,2048,2048
1781,4947,2048,2048
1782,4950,2048,2048
1783,4952,2048,2048
1784,4955,2048,2048
1785,4958,2048,2048
1786,4961,2048,2048
1787,4963,2048,2048
1788,4966,2048,2048
1789,4969,2048,2048
1790,4972,2048,2048
1791,4975,2048,2048
1792,4977,2048,2048
1793,4980,2048,2048
1794,4983,2048,2048
1795,4986,2048,2048
1796,4988,2048,2048
1797,4991,2048,2048
1798,4994,2048,2048
1799,4997,2048,2048
1800,5000,2051,2051
1801,5002,2052,2052
1802,5005,2055,2055
1803,5008,2058,2058
1804,5011,2063,2063
1805,5013,2069,2069
1806,5016,2078,2078
1807,5019,2089,2089
1808,5022,2103,2103
1809,5025,2120,2120
1810,5027,2141,2141
1811,5030,2165,2165
1812,5033,2192,2192
1813,5036,2221,2221
1814,5038,2252,2252
1815,5041,2284,2284
1816,5044,2314,2314
1817,5047,2342,2342
1818,5050,2365,2365
1819,5052,2383,2383
1820,5055,2394,2394
1821,5058,2398,2398
1822,5061,2394,2394
1823,5063,2383,2383
1824,5066,2365,2365
1825,5069,2342,2342
1826,5072,2314,2314
1827,5075,2284,2284
1828,5077,2252,2252
1829,5080,2221,2221
1830,5083,2192,2192
1831,5086,2165,2165
1832,5088,2141,2141
1833,5091,2120,2120
1834,5094,2103,2103
1835,5097,2089,2089
1836,5100,2078,2078
1837,5102,2069,2069
1838,5105,2063,2063
1839,5108,2058,2058
1840,5111,2055,2055
1841,5113,2052,2052
1842,5116,2048,2048
1843,5119,2048,2048
1844,5122,2048,2048
1845,5125,2048,2048
1846,5127,2048,2048
1847,5130,2048,2048
1848,5133,2048,2048
1849,5136,2048,2048
1850,5138,2048,2048
1851,5141,2048,2048
1852,5144,2048,2048
1853,5147,2048,2048
1854,5150,2048,2048
1855,5152,2048,2048
1856,5155,2048,2048
1857,5158,2048,2048
1858,5161,2048,2048
1859,5163,2048,2048
1860,5166,2048,2048
1861,5169,2048,2048
1862,5172,2048,2048
1863,5175,2048,2048
1864,5177,2048,2048
1865,5180,2048,2048
1866,5183,2048,2048
1867,5186,2048,2048
1868,5188,2048,2048
1869,5191,2048,2048
1870,5194,2048,2048
1871,5197,2048,2048
1872,5200,2049,2049
1873,5202,2049,2049
1874,5205,2049,2049
1875,5208,2050,2050
1876,5211,2051,2051
1877,5213,2051,2051
1878,5216,2053,2053
1879,5219,2054,2054
1880,5222,2056,2056
1881,5225,2058,2058
1882,5227,2060,2060
1883,5230,2063,2063
1884,5233,2067,2067
1885,5236,2070,2070
1886,5238,2075,2075
1887,5241,2080,2080
1888,5244,2085,2085
1889,5247,2091,2091
1890,5250,2097,2097
1891,5252,2103,2103
1892,5255,2109,2109
1893,5258,2115,2115
1894,5261,2120,2120
1895,5263,2125,2125
1896,5266,2130,2130
1897,5269,2133,2133
1898,5272,2136,2136
1899,5275,2137,2137
1900,5277,2138,2138
1901,5280,2137,2137
1902,5283,2136,2136
1903,5286,2133,2133
1904,5288,2130,2130
1905,5291,2125,2125
1906,5294,2120,2120
1907,5297,2115,2115
1908,5300,2109,2109
1909,5302,2103,2103
1910,5305,2097,2097
1911,5308,2091,2091
1912,5311,2085,2085
1913,5313,2080,2080
1914,5316,2075,2075
1915,5319,2070,2070
1916,5322,2067,2067
1917,5325,2063,2063
1918,5327,2060,2060
1919,5330,2058,2058
1920,5333,2056,2056
1921,5336,2054,2054
1922,5338,2053,2053
1923,5341,2051,2051
1924,5344,2051,2051
1925,5347,2050,2050
1926,5350,2049,2049
1927,5352,2049,2049
1928,5355,2048,2048
1929,5358,2048,2048
1930,5361,2048,2048
1931,5363,2048,2048
1932,5366,2048,2048
1933,5369,2048,2048
1934,5372,2048,2048
1935,5375,2048,2048
1936,5377,2048,2048
1937,5380,2048,2048
1938,5383,2048,2048
1939,5386,2048,2048
1940,5388,2048,2048
1941,5391,2048,2048
1942,5394,2048,2048
1943,5397,2048,2048
1944,5400,2048,2048
1945,5402,2048,2048
1946,5405,2048,2048
1947,5408,2048,2048
1948,5411,2048,2048
1949,5413,2048,2048
1950,5416,2048,2048
1951,5419,2048,2048
1952,5422,2048,2048
1953,5425,2048,2048
1954,5427,2048,2048
1955,5430,2048,2048
1956,5433,2048,2048
1957,5436,2048,2048
1958,5438,2048,2048
1959,5441,2048,2048
1960,5444,2048,2048
1961,5447,2048,2048
1962,5450,2048,2048
1963,5452,2048,2048
1964,5455,2048,2048
1965,5458,2048,2048
1966,5461,2048,2048
1967,5463,2048,2048
1968,5466,2048,2048
1969,5469,2048,2048
1970,5472,2048,2048
1971,5475,2048,2048
1972,5477,2048,2048
1973,5480,2048,2048
1974,5483,2048,2048
1975,5486,2048,2048
1976,5488,2048,2048
1977,5491,2048,2048
1978,5494,2048,2048
1979,5497,2048,2048
1980,5500,2048,2048
1981,5502,2048,2048
1982,5505,2048,2048
1983,5508,2048,2048
1984,5511,2048,2048
1985,5513,2048,2048
1986,5516,2048,2048
1987,5519,2048,2048
1988,5522,2048,2048
1989,5525,2048,2048
1990,5527,2048,2048
1991,5530,2048,2048
1992,5533,2048,2048
1993,5536,2048,2048
1994,5538,2048,2048
1995,5541,2048,2048
1996,5544,2048,2048
1997,5547,2048,2048
1998,5550,2048,2048
1999,5552,2048,2048
2000,5555,2048,2048
2001,5558,2048,2048
2002,5561,2048,2048
2003,5563,2048,2048
2004,5566,2048,2048
2005,5569,2048,2048
2006,5572,2048,2048
2007,5575,2048,2048
2008,5577,2048,2048
2009,5580,2048,2048
2010,5583,2048,2048
2011,5586,2048,2048
2012,5588,2048,2048
2013,5591,2048,2048
2014,5594,2048,2048
2015,5597,2048,2048
2016,5600,2048,2048
2017,5602,2048,2048
2018,5605,2048,2048
2019,5608,2048,2048
2020,5611,2048,2048
2021,5613,2048,2048
2022,5616,2048,2048
2023,5619,2048,2048
2024,5622,2048,2048
2025,5625,2048,2048
2026,5627,2048,2048
2027,5630,2048,2048
2028,5633,2048,2048
2029,5636,2048,2048
2030,5638,2048,2048
2031,5641,2048,2048
2032,5644,2048,2048
2033,5647,2048,2048
2034,5650,2048,2048
2035,5652,2048,2048
2036,5655,2048,2048
2037,5658,2048,2048
2038,5661,2048,2048
2039,5663,2048,2048
2040,5666,2048,2048
2041,5669,2048,2048
2042,5672,2048,2048
2043,5675,2048,2048
2044,5677,2048,2048
2045,5680,2048,2048
2046,5683,2048,2048
2047,5686,2048,2048
2048,5688,2048,2048
2049,5691,2048,2048
2050,5694,2048,2048
2051,5697,2048,2048
2052,5700,2048,2048
2053,5702,2048,2048
2054,5705,2048,2048
2055,5708,2048,2048
2056,5711,2048,2048
2057,5713,2048,2048
2058,5716,2048,2048
2059,5719,2048,2048
2060,5722,2048,2048
2061,5725,2048,2048
2062,5727,2048,2048
2063,5730,2048,2048
2064,5733,2048,2048
2065,5736,2048,2048
2066,5738,2048,2048
2067,5741,2048,2048
2068,5744,2048,2048
2069,5747,2048,2048
2070,5750,2048,2048
2071,5752,2051,2051
2072,5755,2052,2052
2073,5758,2055,2055
2074,5761,2058,2058
2075,5763,2063,2063
2076,5766,2069,2069
2077,5769,2078,2078
2078,5772,2089,2089
2079,5775,2103,2103
2080,5777,2120,2120
2081,5780,2141,2141
2082,5783,2165,2165
2083,5786,2192,2192
2084,5788,2221,2221
2085,5791,2252,2252
2086,5794,2284,2284
2087,5797,2314,2314
2088,5800,2342,2342
2089,5802,2365,2365
2090,5805,2383,2383
2091,5808,2394,2394
2092,5811,2398,2398
2093,5813,2394,2394
2094,5816,2383,2383
2095,5819,2365,2365
2096,5822,2342,2342
2097,5825,2314,2314
2098,5827,2284,2284
2099,5830,2252,2252
2100,5833,2221,2221
2101,5836,2192,2192
2102,5838,2165,2165
2103,5841,2141,2141
2104,5844,2120,2120
2105,5847,2103,2103
2106,5850,2089,2089
2107,5852,2078,2078
2108,5855,2069,2069
2109,5858,2063,2063
2110,5861,2058,2058
2111,5863,2055,2055
2112,5866,2052,2052
2113,5869,2048,2048
2114,5872,2048,2048
2115,5875,2048,2048
2116,5877,2048,2048
2117,5880,2048,2048
2118,5883,2048,2048
2119,5886,2048,2048
2120,5888,2048,2048
2121,5891,2048,2048
2122,5894,2048,2048
2123,5897,2048,2048
2124,5900,2048,2048
2125,5902,2048,2048
2126,5905,2048,2048
2127,5908,2048,2048
2128,5911,2048,2048
2129,5913,2048,2048
2130,5916,2048,2048
2131,5919,2048,2048
2132,5922,2048,2048
2133,5925,2048,2048
2134,5927,2048,2048
2135,5930,2048,2048
2136,5933,2048,2048
2137,5936,2048,2048
2138,5938,2048,2048
2139,5941,2048,2048
2140,5944,2048,2048
2141,5947,2048,2048
2142,5950,2048,2048
2143,5952,2049,2049
2144,5955,2049,2049
2145,5958,2049,2049
2146,5961,2050,2050
2147,5963,2051,2051
2148,5966,2051,2051
2149,5969,2053,2053
2150,5972,2054,2054
2151,5975,2056,2056
2152,5977,2058,2058
2153,5980,2060,2060
2154,5983,2063,2063
2155,5986,2067,2067
2156,5988,2070,2070
2157,5991,2075,2075
2158,5994,2080,2080
2159,5997,2085,2085
2160,6000,2091,2091
2161,6002,2097,2097
2162,6005,2103,2103
2163,6008,2109,2109
2164,6011,2115,2115
2165,6013,2120,2120
2166,6016,2125,2125
2167,6019,2130,2130
2168,6022,2133,2133
2169,6025,2136,2136
2170,6027,2137,2137
2171,6030,2138,2138
2172,6033,2137,2137
2173,6036,2136,2136
2174,6038,2133,2133
2175,6041,2130,2130
2176,6044,2125,2125
2177,6047,2120,2120
2178,6050,2115,2115
2179,6052,2109,2109
2180,6055,2103,2103
2181,6058,2097,2097
2182,6061,2091,2091
2183,6063,2085,2085
2184,6066,2080,2080
2185,6069,2075,2075
2186,6072,2070,2070
2187,6075,2067,2067
2188,6077,2063,2063
2189,6080,2060,2060
2190,6083,2058,2058
2191,6086,2056,2056
2192,6088,2054,2054
2193,6091,2053,2053
2194,6094,2051,2051
2195,6097,2051,2051
2196,6100,2050,2050
2197,6102,2049,2049
2198,6105,2049,2049
2199,6108,2048,2048
2200,6111,2048,2048
2201,6113,2048,2048
2202,6116,2048,2048
2203,6119,2048,2048
2204,6122,2048,2048
2205,6125,2048,2048
2206,6127,2048,2048
2207,6130,2048,2048
2208,6133,2048,2048
2209,6136,2048,2048
2210,6138,2048,2048
2211,6141,2048,2048
2212,6144,2048,2048
2213,6147,2048,2048
2214,6150,2048,2048
2215,6152,2048,2048
2216,6155,2048,2048
2217,6158,2048,2048
2218,6161,2048,2048
2219,6163,2048,2048
2220,6166,2048,2048
2221,6169,2048,2048
2222,6172,2048,2048
2223,6175,2048,2048
2224,6177,2048,2048
2225,6180,2048,2048
2226,6183,2048,2048
2227,6186,2048,2048
2228,6188,2048,2048
2229,6191,2048,2048
2230,6194,2048,2048
2231,6197,2048,2048
2232,6200,2048,2048
2233,6202,2048,2048
2234,6205,2048,2048
2235,6208,2048,2048
2236,6211,2048,2048
2237,6213,2048,2048
2238,6216,2048,2048
2239,6219,2048,2048
2240,6222,2048,2048
2241,6225,2048,2048
2242,6227,2048,2048
2243,6230,2048,2048
2244,6233,2048,2048
2245,6236,2048,2048
2246,6238,2048,2048
2247,6241,2048,2048
2248,6244,2048,2048
2249,6247,2048,2048
2250,6250,2048,2048
2251,6252,2048,2048
2252,6255,2048,2048
2253,6258,2048,2048
2254,6261,2048,2048
2255,6263,2048,2048
2256,6266,2048,2048
2257,6269,2048,2048
2258,6272,2048,2048
2259,6275,2048,2048
2260,6277,2048,2048
2261,6280,2048,2048
2262,6283,2048,2048
2263,6286,2048,2048
2264,6288,2048,2048
2265,6291,2048,2048
2266,6294,2048,2048
2267,6297,2048,2048
2268,6300,2048,2048
2269,6302,2048,2048
2270,6305,2048,2048
2271,6308,2048,2048
2272,6311,2048,2048
2273,6313,2048,2048
2274,6316,2048,2048
2275,6319,2048,2048
2276,6322,2048,2048
2277,6325,2048,2048
2278,6327,2048,2048
2279,6330,2048,2048
2280,6333,2048,2048
2281,6336,2048,2048
2282,6338,2048,2048
2283,6341,2048,2048
2284,6344,2048,2048
2285,6347,2048,2048
2286,6350,2048,2048
2287,6352,2048,2048
2288,6355,2048,2048
2289,6358,2048,2048
2290,6361,2048,2048
2291,6363,2048,2048
2292,6366,2048,2048
2293,6369,2048,2048
2294,6372,2048,2048
2295,6375,2048,2048
2296,6377,2048,2048
2297,6380,2048,2048
2298,6383,2048,2048
2299,6386,2048,2048
2300,6388,2048,2048
2301,6391,2048,2048
2302,6394,2048,2048
2303,6397,2048,2048
2304,6400,2048,2048
2305,6402,2048,2048
2306,6405,2048,2048
2307,6408,2048,2048
2308,6411,2048,2048
2309,6413,2048,2048
2310,6416,2048,2048
2311,6419,2048,2048
2312,6422,2048,2048
2313,6425,2051,2051
2314,6427,2052,2052
2315,6430,2055,2055
2316,6433,2058,2058
2317,6436,2063,2063
2318,6438,2069,2069
2319,6441,2078,2078
2320,6444,2089,2089
2321,6447,2103,2103
2322,6450,2120,2120
2323,6452,2141,2141
2324,6455,2165,2165
2325,6458,2192,2192
2326,6461,2221,2221
2327,6463,2252,2252
2328,6466,2284,2284
2329,6469,2314,2314
2330,6472,2342,2342
2331,6475,2365,2365
2332,6477,2383,2383
2333,6480,2394,2394
2334,6483,2398,2398
2335,6486,2394,2394
2336,6488,2383,2383
2337,6491,2365,2365
2338,6494,2342,2342
2339,6497,2314,2314
2340,6500,2284,2284
2341,6502,2252,2252
2342,6505,2221,2221
2343,6508,2192,2192
2344,6511,2165,2165
2345,6513,2141,2141
2346,6516,2120,2120
2347,6519,2103,2103
2348,6522,2089,2089
2349,6525,2078,2078
2350,6527,2069,2069
2351,6530,2063,2063
2352,6533,2058,2058
2353,6536,2055,2055
2354,6538,2052,2052
2355,6541,2048,2048
2356,6544,2048,2048
2357,6547,2048,2048
2358,6550,2048,2048
2359,6552,2048,2048
2360,6555,2048,2048
2361,6558,2048,2048
2362,6561,2048,2048
2363,6563,2048,2048
2364,6566,2048,2048
2365,6569,2048,2048
2366,6572,2048,2048
2367,6575,2048,2048
2368,6577,2048,2048
2369,6580,2048,2048
2370,6583,2048,2048
2371,6586,2048,2048
2372,6588,2048,2048
2373,6591,2048,2048
2374,6594,2048,2048
2375,6597,2048,2048
2376,6600,2048,2048
2377,6602,2048,2048
2378,6605,2048,2048
2379,6608,2048,2048
2380,6611,2048,2048
2381,6613,2048,2048
2382,6616,2048,2048
2383,6619,2048,2048
2384,6622,2048,2048
2385,6625,2049,2049
2386,6627,2049,2049
2387,6630,2049,2049
2388,6633,2050,2050
2389,6636,2051,2051
2390,6638,2051,2051
2391,6641,2053,2053
2392,6644,2054,2054
2393,6647,2056,2056
2394,6650,2058,2058
2395,6652,2060,2060
2396,6655,2063,2063
2397,6658,2067,2067
2398,6661,2070,2070
2399,6663,2075,2075
2400,6666,2080,2080
2401,6669,2085,2085
2402,6672,2091,2091
2403,6675,2097,2097
2404,6677,2103,2103
2405,6680,2109,2109
2406,6683,2115,2115
2407,6686,2120,2120
2408,6688,2125,2125
2409,6691,2130,2130
2410,6694,2133,2133
2411,6697,2136,2136
2412,6700,2137,2137
2413,6702,2138,2138
2414,6705,2137,2137
2415,6708,2136,2136
2416,6711,2133,2133
2417,6713,2130,2130
2418,6716,2125,2125
2419,6719,2120,2120
2420,6722,2115,2115
2421,6725,2109,2109
2422,6727,2103,2103
2423,6730,2097,2097
2424,6733,2091,2091
2425,6736,2085,2085
2426,6738,2080,2080
2427,6741,2075,2075
2428,6744,2070,2070
2429,6747,2067,2067
2430,6750,2063,2063
2431,6752,2060,2060
2432,6755,2058,2058
2433,6758,2056,2056
2434,6761,2054,2054
2435,6763,2053,2053
2436,6766,2051,2051
2437,6769,2051,2051
2438,6772,2050,2050
2439,6775,2049,2049
2440,6777,2049,2049
2441,6780,2048,2048
2442,6783,2048,2048
2443,6786,2048,2048
2444,6788,2048,2048
2445,6791,2048,2048
2446,6794,2048,2048
2447,6797,2048,2048
2448,6800,2048,2048
2449,6802,2048,2048
2450,6805,2048,2048
2451,6808,2048,2048
2452,6811,2048,2048
2453,6813,2048,2048
2454,6816,2048,2048
2455,6819,2048,2048
2456,6822,2048,2048
2457,6825,2048,2048
2458,6827,2048,2048
2459,6830,2048,2048
2460,6833,2048,2048
2461,6836,2048,2048
2462,6838,2048,2048
2463,6841,2048,2048
2464,6844,2048,2048
2465,6847,2048,2048
2466,6850,2048,2048
2467,6852,2048,2048
2468,6855,2048,2048
2469,6858,2048,2048
2470,6861,2048,2048
2471,6863,2048,2048
2472,6866,2048,2048
2473,6869,2048,2048
2474,6872,2048,2048
2475,6875,2048,2048
2476,6877,2048,2048
2477,6880,2048,2048
2478,6883,2048,2048
2479,6886,2048,2048
2480,6888,2048,2048
2481,6891,2048,2048
2482,6894,2048,2048
2483,6897,2048,2048
2484,6900,2051,2051
2485,6902,2052,2052
2486,6905,2055,2055
2487,6908,2058,2058
2488,6911,2063,2063
2489,6913,2069,2069
2490,6916,2078,2078
2491,6919,2089,2089
2492,6922,2103,2103
2493,6925,2120,2120
2494,6927,2141,2141
2495,6930,2165,2165
2496,6933,2192,2192
2497,6936,2221,2221
2498,6938,2252,2252
2499,6941,2284,2284
2500,6944,2314,2314
2501,6947,2342,2342
2502,6950,2365,2365
2503,6952,2383,2383
2504,6955,2394,2394
2505,6958,2398,2398
2506,6961,2394,2394
2507,6963,2383,2383
2508,6966,2365,2365
2509,6969,2342,2342
2510,6972,2314,2314
2511,6975,2284,2284
2512,6977,2252,2252
2513,6980,2221,2221
2514,6983,2192,2192
2515,6986,2165,2165
2516,6988,2141,2141
2517,6991,2120,2120
2518,6994,2103,2103
2519,6997,2089,2089
2520,7000,2078,2078
2521,7002,2069,2069
2522,7005,2063,2063
2523,7008,2058,2058
2524,7011,2055,2055
2525,7013,2052,2052
2526,7016,2048,2048
2527,7019,2048,2048
2528,7022,2048,2048
2529,7025,2048,2048
2530,7027,2048,2048
2531,7030,2048,2048
2532,7033,2048,2048
2533,7036,2048,2048
2534,7038,2048,2048
2535,7041,2048,2048
2536,7044,2048,2048
2537,7047,2048,2048
2538,7050,2048,2048
2539,7052,2048,2048
2540,7055,2048,2048
2541,7058,2048,2048
2542,7061,2048,2048
2543,7063,2048,2048
2544,7066,2048,2048
2545,7069,2048,2048
2546,7072,2048,2048
2547,7075,2048,2048
2548,7077,2048,2048
2549,7080,2048,2048
2550,7083,2048,2048
2551,7086,2048,2048
2552,7088,2048,2048
2553,7091,2048,2048
2554,7094,2048,2048
2555,7097,2048,2048
2556,7100,2049,2049
2557,7102,2049,2049
2558,7105,2049,2049
2559,7108,2050,2050
2560,7111,2051,2051
2561,7113,2051,2051
2562,7116,2053,2053
2563,7119,2054,2054
2564,7122,2056,2056
2565,7125,2058,2058
2566,7127,2060,2060
2567,7130,2063,2063
2568,7133,2067,2067
2569,7136,2070,2070
2570,7138,2075,2075
2571,7141,2080,2080
2572,7144,2085,2085
2573,7147,2091,2091
2574,7150,2097,2097
2575,7152,2103,2103
2576,7155,2109,2109
2577,7158,2115,2115
2578,7161,2120,2120
2579,7163,2125,2125
2580,7166,2130,2130
2581,7169,2133,2133
2582,7172,2136,2136
2583,7175,2137,2137
2584,7177,2138,2138
2585,7180,2137,2137
2586,7183,2136,2136
2587,7186,2133,2133
2588,7188,2130,2130
2589,7191,2125,2125
2590,7194,2120,2120
2591,7197,2115,2115
2592,7200,2109,2109
2593,7202,2103,2103
2594,7205,2097,2097
2595,7208,2091,2091
2596,7211,2085,2085
2597,7213,2080,2080
2598,7216,2075,2075
2599,7219,2070,2070
2600,7222,2067,2067
2601,7225,2063,2063
2602,7227,2060,2060
2603,7230,2058,2058
2604,7233,2056,2056
2605,7236,2054,2054
2606,7238,2053,2053
2607,7241,2051,2051
2608,7244,2051,2051
2609,7247,2050,2050
2610,7250,2049,2049
2611,7252,2049,2049
2612,7255,2048,2048
2613,7258,2048,2048
2614,7261,2048,2048
2615,7263,2048,2048
2616,7266,2048,2048
2617,7269,2048,2048
2618,7272,2048,2048
2619,7275,2048,2048
2620,7277,2048,2048
2621,7280,2048,2048
2622,7283,2048,2048
2623,7286,2048,2048
2624,7288,2048,2048
2625,7291,2048,2048
2626,7294,2048,2048
2627,7297,2048,2048
2628,7300,2048,2048
2629,7302,2048,2048
2630,7305,2048,2048
2631,7308,2048,2048
2632,7311,2048,2048
2633,7313,2048,2048
2634,7316,2048,2048
2635,7319,2048,2048
2636,7322,2048,2048
2637,7325,2048,2048
2638,7327,2048,2048
2639,7330,2048,2048
2640,7333,2048,2048
2641,7336,2048,2048
2642,7338,2048,2048
2643,7341,2048,2048
2644,7344,2048,2048
2645,7347,2048,2048
2646,7350,2048,2048
2647,7352,2048,2048
2648,7355,2048,2048
2649,7358,2048,2048
2650,7361,2048,2048
2651,7363,2048,2048
2652,7366,2048,2048
2653,7369,2048,2048
2654,7372,2048,2048
2655,7375,2048,2048
2656,7377,2048,2048
2657,7380,2048,2048
2658,7383,2048,2048
2659,7386,2048,2048
2660,7388,2048,2048
2661,7391,2048,2048
2662,7394,2048,2048
2663,7397,2048,2048
2664,7400,2048,2048
2665,7402,2048,2048
2666,7405,2048,2048
2667,7408,2048,2048
2668,7411,2048,2048
2669,7413,2048,2048
2670,7416,2048,2048
2671,7419,2048,2048
2672,7422,2048,2048
2673,7425,2048,2048
2674,7427,2051,2051
2675,7430,2052,2052
2676,7433,2055,2055
2677,7436,2058,2058
2678,7438,2063,2063
2679,7441,2069,2069
2680,7444,2078,2078
2681,7447,2089,2089
2682,7450,2103,2103
2683,7452,2120,2120
2684,7455,2141,2141
2685,7458,2165,2165
2686,7461,2192,2192
2687,7463,2221,2221
2688,7466,2252,2252
2689,7469,2284,2284
2690,7472,2314,2314
2691,7475,2342,2342
2692,7477,2365,2365
2693,7480,2383,2383
2694,7483,2394,2394
2695,7486,2398,2398
2696,7488,2394,2394
2697,7491,2383,2383
2698,7494,2365,2365
2699,7497,2342,2342
2700,7500,2314,2314
2701,7502,2284,2284
2702,7505,2252,2252
2703,7508,2221,2221
2704,7511,2192,2192
2705,7513,2165,2165
2706,7516,2141,2141
2707,7519,2120,2120
2708,7522,2103,2103
2709,7525,2089,2089
2710,7527,2078,2078
2711,7530,2069,2069
2712,7533,2063,2063
2713,7536,2058,2058
2714,7538,2055,2055
2715,7541,2052,2052
2716,7544,2048,2048
2717,7547,2048,2048
2718,7550,2048,2048
2719,7552,2048,2048
2720,7555,2048,2048
2721,7558,2048,2048
2722,7561,2048,2048
2723,7563,2048,2048
2724,7566,2048,2048
2725,7569,2048,2048
2726,7572,2048,2048
2727,7575,2048,2048
2728,7577,2048,2048
2729,7580,2048,2048
2730,7583,2048,2048
2731,7586,2048,2048
2732,7588,2048,2048
2733,7591,2048,2048
2734,7594,2048,2048
2735,7597,2048,2048
2736,7600,2048,2048
2737,7602,2048,2048
2738,7605,2048,2048
2739,7608,2048,2048
2740,7611,2048,2048
2741,7613,2048,2048
2742,7616,2048,2048
2743,7619,2048,2048
2744,7622,2048,2048
2745,7625,2048,2048
2746,7627,2049,2049
2747,7630,2049,2049
2748,7633,2049,2049
2749,7636,2050,2050
2750,7638,2051,2051
2751,7641,2051,2051
2752,7644,2053,2053
2753,7647,2054,2054
2754,7650,2056,2056
2755,7652,2058,2058
2756,7655,2060,2060
2757,7658,2063,2063
2758,7661,2067,2067
2759,7663,2070,2070
2760,7666,2075,2075
2761,7669,2080,2080
2762,7672,2085,2085
2763,7675,2091,2091
2764,7677,2097,2097
2765,7680,2103,2103
2766,7683,2109,2109
2767,7686,2115,2115
2768,7688,2120,2120
2769,7691,2125,2125
2770,7694,2130,2130
2771,7697,2133,2133
2772,7700,2136,2136
2773,7702,2137,2137
2774,7705,2138,2138
2775,7708,2137,2137
2776,7711,2136,2136
2777,7713,2133,2133
2778,7716,2130,2130
2779,7719,2125,2125
2780,7722,2120,2120
2781,7725,2115,2115
2782,7727,2109,2109
2783,7730,2103,2103
2784,7733,2097,2097
2785,7736,2091,2091
2786,7738,2085,2085
2787,7741,2080,2080
2788,7744,2075,2075
2789,7747,2070,2070
2790,7750,2067,2067
2791,7752,2063,2063
2792,7755,2060,2060
2793,7758,2058,2058
2794,7761,2056,2056
2795,7763,2054,2054
2796,7766,2053,2053
2797,7769,2051,2051
2798,7772,2051,2051
2799,7775,2050,2050
2800,7777,2049,2049
2801,7780,2049,2049
2802,7783,2048,2048
2803,7786,2048,2048
2804,7788,2048,2048
2805,7791,2048,2048
2806,7794,2048,2048
2807,7797,2048,2048
2808,7800,2048,2048
2809,7802,2048,2048
2810,7805,2048,2048
2811,7808,2048,2048
2812,7811,2048,2048
2813,7813,2048,2048
2814,7816,2048,2048
2815,7819,2048,2048
2816,7822,2048,2048
2817,7825,2048,2048
2818,7827,2048,2048
2819,7830,2048,2048
2820,7833,2048,2048
2821,7836,2048,2048
2822,7838,2048,2048
2823,7841,2048,2048
2824,7844,2048,2048
2825,7847,2048,2048
2826,7850,2048,2048
2827,7852,2048,2048
2828,7855,2048,2048
2829,7858,2048,2048
2830,7861,2048,2048
2831,7863,2048,2048
2832,7866,2048,2048
2833,7869,2048,2048
2834,7872,2048,2048
2835,7875,2048,2048
2836,7877,2048,2048
2837,7880,2048,2048
2838,7883,2048,2048
2839,7886,2048,2048
2840,7888,2048,2048
2841,7891,2048,2048
2842,7894,2048,2048
2843,7897,2048,2048
2844,7900,2048,2048
2845,7902,2048,2048
2846,7905,2048,2048
2847,7908,2048,2048
2848,7911,2048,2048
2849,7913,2048,2048
2850,7916,2048,2048
2851,7919,2048,2048
2852,7922,2048,2048
2853,7925,2048,2048
2854,7927,2048,2048
2855,7930,2048,2048
2856,7933,2048,2048
2857,7936,2048,2048
2858,7938,2048,2048
2859,7941,2048,2048
2860,7944,2048,2048
2861,7947,2048,2048
2862,7950,2048,2048
2863,7952,2048,2048
2864,7955,2048,2048
2865,7958,2048,2048
2866,7961,2048,2048
2867,7963,2048,2048
2868,7966,2048,2048
2869,7969,2048,2048
2870,7972,2048,2048
2871,7975,2048,2048
2872,7977,2048,2048
2873,7980,2048,2048
2874,7983,2048,2048
2875,7986,2048,2048
2876,7988,2048,2048
2877,7991,2048,2048
2878,7994,2048,2048
2879,7997,2048,2048
2880,8000,2048,2048
2881,8002,2048,2048
2882,8005,2048,2048
2883,8008,2048,2048
2884,8011,2048,2048
2885,8013,2048,2048
2886,8016,2048,2048
2887,8019,2048,2048
2888,8022,2048,2048
2889,8025,2048,2048
2890,8027,2048,2048
2891,8030,2048,2048
2892,8033,2048,2048
2893,8036,2048,2048
2894,8038,2048,2048
2895,8041,2048,2048
2896,8044,2048,2048
2897,8047,2048,2048
2898,8050,2048,2048
2899,8052,2048,2048
2900,8055,2048,2048
2901,8058,2048,2048
2902,8061,2048,2048
2903,8063,2048,2048
2904,8066,2048,2048
2905,8069,2048,2048
2906,8072,2048,2048
2907,8075,2048,2048
2908,8077,2048,2048
2909,8080,2048,2048
2910,8083,2048,2048
2911,8086,2051,2051
2912,8088,2052,2052
2913,8091,2055,2055
2914,8094,2058,2058
2915,8097,2063,2063
2916,8100,2069,2069
2917,8102,2078,2078
2918,8105,2089,2089
2919,8108,2103,2103
2920,8111,2120,2120
2921,8113,2141,2141
2922,8116,2165,2165
2923,8119,2192,2192
2924,8122,2221,2221
2925,8125,2252,2252
2926,8127,2284,2284
2927,8130,2314,2314
2928,8133,2342,2342
2929,8136,2365,2365
2930,8138,2383,2383
2931,8141,2394,2394
2932,8144,2398,2398
2933,8147,2394,2394
2934,8150,2383,2383
2935,8152,2365,2365
2936,8155,2342,2342
2937,8158,2314,2314
2938,8161,2284,2284
2939,8163,2252,2252
2940,8166,2221,2221
2941,8169,2192,2192
2942,8172,2165,2165
2943,8175,2141,2141
2944,8177,2120,2120
2945,8180,2103,2103
2946,8183,2089,2089
2947,8186,2078,2078
2948,8188,2069,2069
2949,8191,2063,2063
2950,8194,2058,2058
2951,8197,2055,2055
2952,8200,2052,2052
2953,8202,2048,2048
2954,8205,2048,2048
2955,8208,2048,2048
2956,8211,2048,2048
2957,8213,2048,2048
2958,8216,2048,2048
2959,8219,2048,2048
2960,8222,2048,2048
2961,8225,2048,2048
2962,8227,2048,2048
2963,8230,2048,2048
2964,8233,2048,2048
2965,8236,2048,2048
2966,8238,2048,2048
2967,8241,2048,2048
2968,8244,2048,2048
2969,8247,2048,2048
2970,8250,2048,2048
2971,8252,2048,2048
2972,8255,2048,2048
2973,8258,2048,2048
2974,8261,2048,2048
2975,8263,2048,2048
2976,8266,2048,2048
2977,8269,2048,2048
2978,8272,2048,2048
2979,8275,2048,2048
2980,8277,2048,2048
2981,8280,2048,2048
2982,8283,2048,2048
2983,8286,2049,2049
2984,8288,2049,2049
2985,8291,2049,2049
2986,8294,2050,2050
2987,8297,2051,2051
2988,8300,2051,2051
2989,8302,2053,2053
2990,8305,2054,2054
2991,8308,2056,2056
2992,8311,2058,2058
2993,8313,2060,2060
2994,8316,2063,2063
2995,8319,2067,2067
2996,8322,2070,2070
2997,8325,2075,2075
2998,8327,2080,2080
2999,8330,2085,2085
3000,8333,2091,2091
3001,8336,2097,2097
3002,8338,2103,2103
3003,8341,2109,2109
3004,8344,2115,2115
3005,8347,2120,2120
3006,8350,2125,2125
3007,8352,2130,2130
3008,8355,2133,2133
3009,8358,2136,2136
3010,8361,2137,2137
3011,8363,2138,2138
3012,8366,2137,2137
3013,8369,2136,2136
3014,8372,2133,2133
3015,8375,2130,2130
3016,8377,2125,2125
3017,8380,2120,2120
3018,8383,2115,2115
3019,8386,2109,2109
3020,8388,2103,2103
3021,8391,2097,2097
3022,8394,2091,2091
3023,8397,2085,2085
3024,8400,2080,2080
3025,8402,2075,2075
3026,8405,2070,2070
3027,8408,2067,2067
3028,8411,2063,2063
3029,8413,2060,2060
3030,8416,2058,2058
3031,8419,2056,2056
3032,8422,2054,2054
3033,8425,2053,2053
3034,8427,2051,2051
3035,8430,2051,2051
3036,8433,2050,2050
3037,8436,2049,2049
3038,8438,2049,2049
3039,8441,2048,2048
3040,8444,2048,2048
3041,8447,2048,2048
3042,8450,2048,2048
3043,8452,2048,2048
3044,8455,2048,2048
3045,8458,2048,2048
3046,8461,2048,2048
3047,8463,2048,2048
3048,8466,2048,2048
3049,8469,2048,2048
3050,8472,2048,2048
3051,8475,2048,2048
3052,8477,2048,2048
3053,8480,2048,2048
3054,8483,2048,2048
3055,8486,2048,2048
3056,8488,2048,2048
3057,8491,2048,2048
3058,8494,2048,2048
3059,8497,2048,2048
3060,8500,2048,2048
3061,8502,2048,2048
3062,8505,2048,2048
3063,8508,2048,2048
3064,8511,2048,2048
3065,8513,2048,2048
3066,8516,2048,2048
3067,8519,2048,2048
3068,8522,2048,2048
3069,8525,2048,2048
3070,8527,2048,2048
3071,8530,2048,2048
3072,8533,2048,2048
3073,8536,2048,2048
3074,8538,2048,2048
3075,8541,2048,2048
3076,8544,2048,2048
3077,8547,2048,2048
3078,8550,2048,2048
3079,8552,2048,2048
3080,8555,2048,2048
3081,8558,2048,2048
3082,8561,2048,2048
3083,8563,2048,2048
3084,8566,2048,2048
3085,8569,2048,2048
3086,8572,2048,2048
3087,8575,2048,2048
3088,8577,2048,2048
3089,8580,2048,2048
3090,8583,2048,2048
3091,8586,2048,2048
3092,8588,2048,2048
3093,8591,2048,2048
3094,8594,2048,2048
3095,8597,2048,2048
3096,8600,2048,2048
3097,8602,2048,2048
3098,8605,2048,2048
3099,8608,2048,2048
3100,8611,2048,2048
3101,8613,2048,2048
3102,8616,2048,2048
3103,8619,2048,2048
3104,8622,2048,2048
3105,8625,2048,2048
3106,8627,2048,2048
3107,8630,2048,2048
3108,8633,2048,2048
3109,8636,2048,2048
3110,8638,2048,2048
3111,8641,2048,2048
3112,8644,2048,2048
3113,8647,2048,2048
3114,8650,2048,2048
3115,8652,2048,2048
3116,8655,2048,2048
3117,8658,2048,2048
3118,8661,2048,2048
3119,8663,2048,2048
3120,8666,2048,2048
3121,8669,2048,2048
3122,8672,2048,2048
3123,8675,2048,2048
3124,8677,2048,2048
3125,8680,2048,2048
3126,8683,2048,2048
3127,8686,2048,2048
3128,8688,2048,2048
3129,8691,2048,2048
3130,8694,2048,2048
3131,8697,2048,2048
3132,8700,2048,2048
3133,8702,2048,2048
3134,8705,2048,2048
3135,8708,2048,2048
3136,8711,2048,2048
3137,8713,2048,2048
3138,8716,2048,2048
3139,8719,2048,2048
3140,8722,2048,2048
3141,8725,2048,2048
3142,8727,2048,2048
3143,8730,2048,2048
3144,8733,2048,2048
3145,8736,2048,2048
3146,8738,2048,2048
3147,8741,2048,2048
3148,8744,2048,2048
3149,8747,2048,2048
3150,8750,2048,2048
3151,8752,2048,2048
3152,8755,2048,2048
3153,8758,2048,2048
3154,8761,2048,2048
3155,8763,2048,2048
3156,8766,2048,2048
3157,8769,2051,2051
3158,8772,2052,2052
3159,8775,2055,2055
3160,8777,2058,2058
3161,8780,2063,2063
3162,8783,2069,2069
3163,8786,2078,2078
3164,8788,2089,2089
3165,8791,2103,2103
3166,8794,2120,2120
3167,8797,2141,2141
3168,8800,2165,2165
3169,8802,2192,2192
3170,8805,2221,2221
3171,8808,2252,2252
3172,8811,2284,2284
3173,8813,2314,2314
3174,8816,2342,2342
3175,8819,2365,2365
3176,8822,2383,2383
3177,8825,2394,2394
3178,8827,2398,2398
3179,8830,2394,2394
3180,8833,2383,2383
3181,8836,2365,2365
3182,8838,2342,2342
3183,8841,2314,2314
3184,8844,2284,2284
3185,8847,2252,2252
3186,8850,2221,2221
3187,8852,2192,2192
3188,8855,2165,2165
3189,8858,2141,2141
3190,8861,2120,2120
3191,8863,2103,2103
3192,8866,2089,2089
3193,8869,2078,2078
3194,8872,2069,2069
3195,8875,2063,2063
3196,8877,2058,2058
3197,8880,2055,2055
3198,8883,2052,2052
3199,8886,2048,2048
3200,8888,2048,2048
3201,8891,2048,2048
3202,8894,2048,2048
3203,8897,2048,2048
3204,8900,2048,2048
3205,8902,2048,2048
3206,8905,2048,2048
3207,8908,2048,2048
3208,8911,2048,2048
3209,8913,2048,2048
3210,8916,2048,2048
3211,8919,2048,2048
3212,8922,2048,2048
3213,8925,2048,2048
3214,8927,2048,2048
3215,8930,2048,2048
3216,8933,2048,2048
3217,8936,2048,2048
3218,8938,2048,2048
3219,8941,2048,2048
3220,8944,2048,2048
3221,8947,2048,2048
3222,8950,2048,2048
3223,8952,2048,2048
3224,8955,2048,2048
3225,8958,2048,2048
3226,8961,2048,2048
3227,8963,2048,2048
3228,8966,2048,2048
3229,8969,2049,2049
3230,8972,2049,2049
3231,8975,2049,2049
3232,8977,2050,2050
3233,8980,2051,2051
3234,8983,2051,2051
3235,8986,2053,2053
3236,8988,2054,2054
3237,8991,2056,2056
3238,8994,2058,2058
3239,8997,2060,2060
3240,9000,2063,2063
3241,9002,2067,2067
3242,9005,2070,2070
3243,9008,2075,2075
3244,9011,2080,2080
3245,9013,2085,2085
3246,9016,2091,2091
3247,9019,2097,2097
3248,9022,2103,2103
3249,9025,2109,2109
3250,9027,2115,2115
3251,9030,2120,2120
3252,9033,2125,2125
3253,9036,2130,2130
3254,9038,2133,2133
3255,9041,2136,2136
3256,9044,2137,2137
3257,9047,2138,2138
3258,9050,2137,2137
3259,9052,2136,2136
3260,9055,2133,2133
3261,9058,2130,2130
3262,9061,2125,2125
3263,9063,2120,2120
3264,9066,2115,2115
3265,9069,2109,2109
3266,9072,2103,2103
3267,9075,2097,2097
3268,9077,2091,2091
3269,9080,2085,2085
3270,9083,2080,2080
3271,9086,2075,2075
3272,9088,2070,2070
3273,9091,2067,2067
3274,9094,2063,2063
3275,9097,2060,2060
3276,9100,2058,2058
3277,9102,2056,2056
3278,9105,2054,2054
3279,9108,2053,2053
3280,9111,2051,2051
3281,9113,2051,2051
3282,9116,2050,2050
3283,9119,2049,2049
3284,9122,2049,2049
3285,9125,2048,2048
3286,9127,2048,2048
3287,9130,2048,2048
3288,9133,2048,2048
3289,9136,2048,2048
3290,9138,2048,2048
3291,9141,2048,2048
3292,9144,2048,2048
3293,9147,2048,2048
3294,9150,2048,2048
3295,9152,2048,2048
3296,9155,2048,2048
3297,9158,2048,2048
3298,9161,2048,2048
3299,9163,2048,2048
3300,9166,2048,2048
3301,9169,2048,2048
3302,9172,2048,2048
3303,9175,2048,2048
3304,9177,2048,2048
3305,9180,2048,2048
3306,9183,2048,2048
3307,9186,2048,2048
3308,9188,2048,2048
3309,9191,2048,2048
3310,9194,2048,2048
3311,9197,2048,2048
3312,9200,2048,2048
3313,9202,2048,2048
3314,9205,2048,2048
3315,9208,2048,2048
3316,9211,2048,2048
3317,9213,2048,2048
3318,9216,2048,2048
3319,9219,2048,2048
3320,9222,2048,2048
3321,9225,2048,2048
3322,9227,2048,2048
3323,9230,2048,2048
3324,9233,2048,2048
3325,9236,2048,2048
3326,9238,2048,2048
3327,9241,2048,2048
3328,9244,2048,2048
3329,9247,2048,2048
3330,9250,2048,2048
3331,9252,2048,2048
3332,9255,2048,2048
3333,9258,2048,2048
3334,9261,2048,2048
3335,9263,2048,2048
3336,9266,2048,2048
3337,9269,2048,2048
3338,9272,2048,2048
3339,9275,2048,2048
3340,9277,2048,2048
3341,9280,2048,2048
3342,9283,2048,2048
3343,9286,2048,2048
3344,9288,2048,2048
3345,9291,2048,2048
3346,9294,2048,2048
3347,9297,2048,2048
3348,9300,2048,2048
3349,9302,2048,2048
3350,9305,2048,2048
3351,9308,2048,2048
3352,9311,2048,2048
3353,9313,2048,2048
3354,9316,2048,2048
3355,9319,2048,2048
3356,9322,2048,2048
3357,9325,2048,2048
3358,9327,2048,2048
3359,9330,2048,2048
3360,9333,2048,2048
3361,9336,2048,2048
3362,9338,2048,2048
3363,9341,2048,2048
3364,9344,2048,2048
3365,9347,2048,2048
3366,9350,2048,2048
3367,9352,2048,2048
3368,9355,2048,2048
3369,9358,2048,2048
3370,9361,2048,2048
3371,9363,2048,2048
3372,9366,2048,2048
3373,9369,2048,2048
3374,9372,2048,2048
3375,9375,2048,2048
3376,9377,2048,2048
3377,9380,2048,2048
3378,9383,2048,2048
3379,9386,2048,2048
3380,9388,2048,2048
3381,9391,2048,2048
3382,9394,2048,2048
3383,9397,2048,2048
3384,9400,2048,2048
3385,9402,2048,2048
3386,9405,2048,2048
3387,9408,2048,2048
3388,9411,2048,2048
3389,9413,2048,2048
3390,9416,2048,2048
3391,9419,2048,2048
3392,9422,2048,2048
3393,9425,2048,2048
3394,9427,2048,2048
3395,9430,2048,2048
3396,9433,2048,2048
3397,9436,2048,2048
3398,9438,2048,2048
3399,9441,2048,2048
3400,9444,2048,2048
3401,9447,2048,2048
3402,9450,2048,2048
3403,9452,2048,2048
3404,9455,2048,2048
3405,9458,2051,2051
3406,9461,2052,2052
3407,9463,2055,2055
3408,9466,2058,2058
3409,9469,2063,2063
3410,9472,2069,2069
3411,9475,2078,2078
3412,9477,2089,2089
3413,9480,2103,2103
3414,9483,2120,2120
3415,9486,2141,2141
3416,9488,2165,2165
3417,9491,2192,2192
3418,9494,2221,2221
3419,9497,2252,2252
3420,9500,2284,2284
3421,9502,2314,2314
3422,9505,2342,2342
3423,9508,2365,2365
3424,9511,2383,2383
3425,9513,2394,2394
3426,9516,2398,2398
3427,9519,2394,2394
3428,9522,2383,2383
3429,9525,2365,2365
3430,9527,2342,2342
3431,9530,2314,2314
3432,9533,2284,2284
3433,9536,2252,2252
3434,9538,2221,2221
3435,9541,2192,2192
3436,9544,2165,2165
3437,9547,2141,2141
3438,9550,2120,2120
3439,9552,2103,2103
3440,9555,2089,2089
3441,9558,2078,2078
3442,9561,2069,2069
3443,9563,2063,2063
3444,9566,2058,2058
3445,9569,2055,2055
3446,9572,2052,2052
3447,9575,2048,2048
3448,9577,2048,2048
3449,9580,2048,2048
3450,9583,2048,2048
3451,9586,2048,2048
3452,9588,2048,2048
3453,9591,2048,2048
3454,9594,2048,2048
3455,9597,2048,2048
3456,9600,2048,2048
3457,9602,2048,2048
3458,9605,2048,2048
3459,9608,2048,2048
3460,9611,2048,2048
3461,9613,2048,2048
3462,9616,2048,2048
3463,9619,2048,2048
3464,9622,2048,2048
3465,9625,2048,2048
3466,9627,2048,2048
3467,9630,2048,2048
3468,9633,2048,2048
3469,9636,2048,2048
3470,9638,2048,2048
3471,9641,2048,2048
3472,9644,2048,2048
3473,9647,2048,2048
3474,9650,2048,2048
3475,9652,2048,2048
3476,9655,2048,2048
3477,9658,2049,2049
3478,9661,2049,2049
3479,9663,2049,2049
3480,9666,2050,2050
3481,9669,2051,2051
3482,9672,2051,2051
3483,9675,2053,2053
3484,9677,2054,2054
3485,9680,2056,2056
3486,9683,2058,2058
3487,9686,2060,2060
3488,9688,2063,2063
3489,9691,2067,2067
3490,9694,2070,2070
3491,9697,2075,2075
3492,9700,2080,2080
3493,9702,2085,2085
3494,9705,2091,2091
3495,9708,2097,2097
3496,9711,2103,2103
3497,9713,2109,2109
3498,9716,2115,2115
3499,9719,2120,2120
3500,9722,2125,2125
3501,9725,2130,2130
3502,9727,2133,2133
3503,9730,2136,2136
3504,9733,2137,2137
3505,9736,2138,2138
3506,9738,2137,2137
3507,9741,2136,2136
3508,9744,2133,2133
3509,9747,2130,2130
3510,9750,2125,2125
3511,9752,2120,2120
3512,9755,2115,2115
3513,9758,2109,2109
3514,9761,2103,2103
3515,9763,2097,2097
3516,9766,2091,2091
3517,9769,2085,2085
3518,9772,2080,2080
3519,9775,2075,2075
3520,9777,2070,2070
3521,9780,2067,2067
3522,9783,2063,2063
3523,9786,2060,2060
3524,9788,2058,2058
3525,9791,2056,2056
3526,9794,2054,2054
3527,9797,2053,2053
3528,9800,2051,2051
3529,9802,2051,2051
3530,9805,2050,2050
3531,9808,2049,2049
3532,9811,2049,2049
3533,9813,2048,2048
3534,9816,2048,2048
3535,9819,2048,2048
3536,9822,2048,2048
3537,9825,2048,2048
3538,9827,2048,2048
3539,9830,2048,2048
3540,9833,2048,2048
3541,9836,2048,2048
3542,9838,2048,2048
3543,9841,2048,2048
3544,9844,2048,2048
3545,9847,2048,2048
3546,9850,2048,2048
3547,9852,2048,2048
3548,9855,2048,2048
3549,9858,2048,2048
3550,9861,2048,2048
3551,9863,2048,2048
3552,9866,2048,2048
3553,9869,2048,2048
3554,9872,2048,2048
3555,9875,2048,2048
3556,9877,2048,2048
3557,9880,2048,2048
3558,9883,2048,2048
3559,9886,2048,2048
3560,9888,2048,2048
3561,9891,2048,2048
3562,9894,2048,2048
3563,9897,2048,2048
3564,9900,2048,2048
3565,9902,2048,2048
3566,9905,2048,2048
3567,9908,2048,2048
3568,9911,2048,2048
3569,9913,2048,2048
3570,9916,2048,2048
3571,9919,2048,2048
3572,9922,2048,2048
3573,9925,2048,2048
3574,9927,2048,2048
3575,9930,2048,2048
3576,9933,2048,2048
3577,9936,2048,2048
3578,9938,2048,2048
3579,9941,2048,2048
3580,9944,2048,2048
3581,9947,2048,2048
3582,9950,2048,2048
3583,9952,2048,2048
3584,9955,2048,2048
3585,9958,2048,2048
3586,9961,2048,2048
3587,9963,2048,2048
3588,9966,2048,2048
3589,9969,2048,2048
3590,9972,2048,2048
3591,9975,2048,2048
3592,9977,2048,2048
3593,9980,2048,2048
3594,9983,2048,2048
3595,9986,2048,2048
3596,9988,2048,2048
3597,9991,2048,2048
3598,9994,2048,2048
3599,9997,2048,2048
3600,10000,2048,2048
3601,10002,2048,2048
3602,10005,2048,2048
3603,10008,2048,2048
3604,10011,2048,2048
3605,10013,2048,2048
3606,10016,2048,2048
3607,10019,2048,2048
3608,10022,2048,2048
3609,10025,2048,2048
3610,10027,2048,2048
3611,10030,2048,2048
3612,10033,2048,2048
3613,10036,2048,2048
3614,10038,2048,2048
3615,10041,2048,2048
3616,10044,2048,2048
3617,10047,2048,2048
3618,10050,2048,2048
3619,10052,2048,2048
3620,10055,2048,2048
3621,10058,2048,2048
3622,10061,2048,2048
3623,10063,2048,2048
3624,10066,2048,2048
3625,10069,2048,2048
3626,10072,2048,2048
3627,10075,2048,2048
3628,10077,2048,2048
3629,10080,2048,2048
3630,10083,2048,2048
3631,10086,2048,2048
3632,10088,2048,2048
3633,10091,2048,2048
3634,10094,2048,2048
3635,10097,2048,2048
3636,10100,2048,2048
3637,10102,2048,2048
3638,10105,2048,2048
3639,10108,2048,2048
3640,10111,2048,2048
3641,10113,2048,2048
3642,10116,2048,2048
3643,10119,2048,2048
3644,10122,2048,2048
3645,10125,2048,2048
3646,10127,2048,2048
3647,10130,2048,2048
3648,10133,2048,2048
3649,10136,2048,2048
3650,10138,2048,2048
3651,10141,2048,2048
3652,10144,2048,2048
3653,10147,2048,2048
3654,10150,2048,2048
3655,10152,2048,2048
3656,10155,2048,2048
3657,10158,2048,2048
3658,10161,2048,2048
3659,10163,2048,2048
3660,10166,2048,2048
3661,10169,2048,2048
3662,10172,2048,2048
3663,10175,2048,2048
3664,10177,2048,2048
3665,10180,2048,2048
3666,10183,2048,2048
3667,10186,2048,2048
3668,10188,2048,2048
3669,10191,2048,2048
3670,10194,2048,2048
3671,10197,2048,2048
3672,10200,2048,2048
3673,10202,2048,2048
3674,10205,2048,2048
3675,10208,2048,2048
3676,10211,2048,2048
3677,10213,2048,2048
3678,10216,2048,2048
3679,10219,2048,2048
3680,10222,2048,2048
3681,10225,2048,2048
3682,10227,2048,2048
3683,10230,2048,2048
3684,10233,2048,2048
3685,10236,2048,2048
3686,10238,2048,2048
3687,10241,2048,2048
3688,10244,2048,2048
3689,10247,2048,2048
3690,10250,2048,2048
3691,10252,2048,2048
3692,10255,2048,2048
3693,10258,2048,2048
3694,10261,2048,2048
3695,10263,2048,2048
3696,10266,2048,2048
3697,10269,2048,2048
3698,10272,2048,2048
3699,10275,2048,2048
3700,10277,2048,2048
3701,10280,2048,2048
3702,10283,2048,2048
3703,10286,2048,2048
3704,10288,2048,2048
3705,10291,2048,2048
3706,10294,2048,2048
3707,10297,2048,2048
3708,10300,2048,2048
3709,10302,2048,2048
3710,10305,2048,2048
3711,10308,2048,2048
3712,10311,2048,2048
3713,10313,2048,2048
3714,10316,2048,2048
3715,10319,2048,2048
3716,10322,2048,2048
3717,10325,2048,2048
3718,10327,2048,2048
3719,10330,2048,2048
3720,10333,2048,2048
3721,10336,2048,2048
3722,10338,2048,2048
3723,10341,2048,2048
3724,10344,2048,2048
3725,10347,2048,2048
3726,10350,2048,2048
3727,10352,2048,2048
3728,10355,2051,2051
3729,10358,2052,2052
3730,10361,2055,2055
3731,10363,2058,2058
3732,10366,2063,2063
3733,10369,2069,2069
3734,10372,2078,2078
3735,10375,2089,2089
3736,10377,2103,2103
3737,10380,2120,2120
3738,10383,2141,2141
3739,10386,2165,2165
3740,10388,2192,2192
3741,10391,2221,2221
3742,10394,2252,2252
3743,10397,2284,2284
3744,10400,2314,2314
3745,10402,2342,2342
3746,10405,2365,2365
3747,10408,2383,2383
3748,10411,2394,2394
3749,10413,2398,2398
3750,10416,2394,2394
3751,10419,2383,2383
3752,10422,2365,2365
3753,10425,2342,2342
3754,10427,2314,2314
3755,10430,2284,2284
3756,10433,2252,2252
3757,10436,2221,2221
3758,10438,2192,2192
3759,10441,2165,2165
3760,10444,2141,2141
3761,10447,2120,2120
3762,10450,2103,2103
3763,10452,2089,2089
3764,10455,2078,2078
3765,10458,2069,2069
3766,10461,2063,2063
3767,10463,2058,2058
3768,10466,2055,2055
3769,10469,2052,2052
3770,10472,2048,2048
3771,10475,2048,2048
3772,10477,2048,2048
3773,10480,2048,2048
3774,10483,2048,2048
3775,10486,2048,2048
3776,10488,2048,2048
3777,10491,2048,2048
3778,10494,2048,2048
3779,10497,2048,2048
3780,10500,2048,2048
3781,10502,2048,2048
3782,10505,2048,2048
3783,10508,2048,2048
3784,10511,2048,2048
3785,10513,2048,2048
3786,10516,2048,2048
3787,10519,2048,2048
3788,10522,2048,2048
3789,10525,2048,2048
3790,10527,2048,2048
3791,10530,2048,2048
3792,10533,2048,2048
3793,10536,2048,2048
3794,10538,2048,2048
3795,10541,2048,2048
3796,10544,2048,2048
3797,10547,2048,2048
3798,10550,2048,2048
3799,10552,2048,2048
3800,10555,2049,2049
3801,10558,2049,2049
3802,10561,2049,2049
3803,10563,2050,2050
3804,10566,2051,2051
3805,10569,2051,2051
3806,10572,2053,2053
3807,10575,2054,2054
3808,10577,2056,2056
3809,10580,2058,2058
3810,10583,2060,2060
3811,10586,2063,2063
3812,10588,2067,2067
3813,10591,2070,2070
3814,10594,2075,2075
3815,10597,2080,2080
3816,10600,2085,2085
3817,10602,2091,2091
3818,10605,2097,2097
3819,10608,2103,2103
3820,10611,2109,2109
3821,10613,2115,2115
3822,10616,2120,2120
3823,10619,2125,2125
3824,10622,2130,2130
3825,10625,2133,2133
3826,10627,2136,2136
3827,10630,2137,2137
3828,10633,2138,2138
3829,10636,2137,2137
3830,10638,2136,2136
3831,10641,2133,2133
3832,10644,2130,2130
3833,10647,2125,2125
3834,10650,2120,2120
3835,10652,2115,2115
3836,10655,2109,2109
3837,10658,2103,2103
3838,10661,2097,2097
3839,10663,2091,2091
3840,10666,2085,2085
3841,10669,2080,2080
3842,10672,2075,2075
3843,10675,2070,2070
3844,10677,2067,2067
3845,10680,2063,2063
3846,10683,2060,2060
3847,10686,2058,2058
3848,10688,2056,2056
3849,10691,2054,2054
3850,10694,2053,2053
3851,10697,2051,2051
3852,10700,2051,2051
3853,10702,2050,2050
3854,10705,2049,2049
3855,10708,2049,2049
3856,10711,2048,2048
3857,10713,2048,2048
3858,10716,2048,2048
3859,10719,2048,2048
3860,10722,2048,2048
3861,10725,2048,2048
3862,10727,2048,2048
3863,10730,2048,2048
3864,10733,2048,2048
3865,10736,2048,2048
3866,10738,2048,2048
3867,10741,2048,2048
3868,10744,2048,2048
3869,10747,2048,2048
3870,10750,2048,2048
3871,10752,2048,2048
3872,10755,2048,2048
3873,10758,2048,2048
3874,10761,2048,2048
3875,10763,2048,2048
3876,10766,2048,2048
3877,10769,2048,2048
3878,10772,2048,2048
3879,10775,2048,2048
3880,10777,2048,2048
3881,10780,2048,2048
3882,10783,2048,2048
3883,10786,2048,2048
3884,10788,2048,2048
3885,10791,2048,2048
3886,10794,2048,2048
3887,10797,2048,2048
3888,10800,2048,2048
3889,10802,2048,2048
3890,10805,2048,2048
3891,10808,2048,2048
3892,10811,2048,2048
3893,10813,2048,2048
3894,10816,2048,2048
3895,10819,2048,2048
3896,10822,2048,2048
3897,10825,2048,2048
3898,10827,2048,2048
3899,10830,2048,2048
3900,10833,2048,2048
3901,10836,2048,2048
3902,10838,2048,2048
3903,10841,2048,2048
3904,10844,2048,2048
3905,10847,2048,2048
3906,10850,2048,2048
3907,10852,2048,2048
3908,10855,2048,2048
3909,10858,2048,2048
3910,10861,2048,2048
3911,10863,2048,2048
3912,10866,2048,2048
3913,10869,2048,2048
3914,10872,2048,2048
3915,10875,2048,2048
3916,10877,2048,2048
3917,10880,2048,2048
3918,10883,2048,2048
3919,10886,2048,2048
3920,10888,2048,2048
3921,10891,2048,2048
3922,10894,2048,2048
3923,10897,2048,2048
3924,10900,2048,2048
3925,10902,2048,2048
3926,10905,2048,2048
3927,10908,2048,2048
3928,10911,2048,2048
3929,10913,2048,2048
3930,10916,2048,2048
3931,10919,2048,2048
3932,10922,2048,2048
3933,10925,2048,2048
3934,10927,2048,2048
3935,10930,2048,2048
3936,10933,2048,2048
3937,10936,2048,2048
3938,10938,2048,2048
3939,10941,2048,2048
3940,10944,2048,2048
3941,10947,2048,2048
3942,10950,2048,2048
3943,10952,2048,2048
3944,10955,2048,2048
3945,10958,2048,2048
3946,10961,2048,2048
3947,10963,2048,2048
3948,10966,2048,2048
3949,10969,2048,2048
3950,10972,2048,2048
3951,10975,2048,2048
3952,10977,2048,2048
3953,10980,2048,2048
3954,10983,2048,2048
3955,10986,2048,2048
3956,10988,2048,2048
3957,10991,2048,2048
3958,10994,2048,2048
3959,10997,2048,2048
3960,11000,2048,2048
3961,11002,2048,2048
3962,11005,2048,2048
3963,11008,2048,2048
3964,11011,2048,2048
3965,11013,2048,2048
3966,11016,2048,2048
3967,11019,2048,2048
3968,11022,2048,2048
3969,11025,2048,2048
3970,11027,2048,2048
3971,11030,2048,2048
3972,11033,2048,2048
3973,11036,2048,2048
3974,11038,2048,2048
3975,11041,2048,2048
3976,11044,2048,2048
3977,11047,2048,2048
3978,11050,2048,2048
3979,11052,2048,2048
3980,11055,2048,2048
3981,11058,2048,2048
3982,11061,2048,2048
3983,11063,2048,2048
3984,11066,2048,2048
3985,11069,2048,2048
3986,11072,2048,2048
3987,11075,2048,2048
3988,11077,2048,2048
3989,11080,2048,2048
3990,11083,2048,2048
3991,11086,2048,2048
3992,11088,2048,2048
3993,11091,2048,2048
3994,11094,2048,2048
3995,11097,2048,2048
3996,11100,2051,2051
3997,11102,2052,2052
3998,11105,2055,2055
3999,11108,2058,2058
4000,11111,2063,2063
4001,11113,2069,2069
4002,11116,2078,2078
4003,11119,2089,2089
4004,11122,2103,2103
4005,11125,2120,2120
4006,11127,2141,2141
4007,11130,2165,2165
4008,11133,2192,2192
4009,11136,2221,2221
4010,11138,2252,2252
4011,11141,2284,2284
4012,11144,2314,2314
4013,11147,2342,2342
4014,11150,2365,2365
4015,11152,2383,2383
4016,11155,2394,2394
4017,11158,2398,2398
4018,11161,2394,2394
4019,11163,2383,2383
4020,11166,2365,2365
4021,11169,2342,2342
4022,11172,2314,2314
4023,11175,2284,2284
4024,11177,2252,2252
4025,11180,2221,2221
4026,11183,2192,2192
4027,11186,2165,2165
4028,11188,2141,2141
4029,11191,2120,2120
4030,11194,2103,2103
4031,11197,2089,2089
4032,11200,2078,2078
4033,11202,2069,2069
4034,11205,2063,2063
4035,11208,2058,2058
4036,11211,2055,2055
4037,11213,2052,2052
4038,11216,2048,2048
4039,11219,2048,2048
4040,11222,2048,2048
4041,11225,2048,2048
4042,11227,2048,2048
4043,11230,2048,2048
4044,11233,2048,2048
4045,11236,2048,2048
4046,11238,2048,2048
4047,11241,2048,2048
4048,11244,2048,2048
4049,11247,2048,2048
4050,11250,2048,2048
4051,11252,2048,2048
4052,11255,2048,2048
4053,11258,2048,2048
4054,11261,2048,2048
4055,11263,2048,2048
4056,11266,2048,2048
4057,11269,2048,2048
4058,11272,2048,2048
4059,11275,2048,2048
4060,11277,2048,2048
4061,11280,2048,2048
4062,11283,2048,2048
4063,11286,2048,2048
4064,11288,2048,2048
4065,11291,2048,2048
4066,11294,2048,2048
4067,11297,2048,2048
4068,11300,2049,2049
4069,11302,2049,2049
4070,11305,2049,2049
4071,11308,2050,2050
4072,11311,2051,2051
4073,11313,2051,2051
4074,11316,2053,2053
4075,11319,2054,2054
4076,11322,2056,2056
4077,11325,2058,2058
4078,11327,2060,2060
4079,11330,2063,2063
4080,11333,2067,2067
4081,11336,2070,2070
4082,11338,2075,2075
4083,11341,2080,2080
4084,11344,2085,2085
4085,11347,2091,2091
4086,11350,2097,2097
4087,11352,2103,2103
4088,11355,2109,2109
4089,11358,2115,2115
4090,11361,2120,2120
4091,11363,2125,2125
4092,11366,2130,2130
4093,11369,2133,2133
4094,11372,2136,2136
4095,11375,2137,2137
4096,11377,2138,2138
4097,11380,2137,2137
4098,11383,2136,2136
4099,11386,2133,2133
4100,11388,2130,2130
4101,11391,2125,2125
4102,11394,2120,2120
4103,11397,2115,2115
4104,11400,2109,2109
4105,11402,2103,2103
4106,11405,2097,2097
4107,11408,2091,2091
4108,11411,2085,2085
4109,11413,2080,2080
4110,11416,2075,2075
4111,11419,2070,2070
4112,11422,2067,2067
4113,11425,2063,2063
4114,11427,2060,2060
4115,11430,2058,2058
4116,11433,2056,2056
4117,11436,2054,2054
4118,11438,2053,2053
4119,11441,2051,2051
4120,11444,2051,2051
4121,11447,2050,2050
4122,11450,2049,2049
4123,11452,2049,2049
4124,11455,2048,2048
4125,11458,2048,2048
4126,11461,2048,2048
4127,11463,2048,2048
4128,11466,2048,2048
4129,11469,2048,2048
4130,11472,2048,2048
4131,11475,2048,2048
4132,11477,2048,2048
4133,11480,2048,2048
4134,11483,2048,2048
4135,11486,2048,2048
4136,11488,2048,2048
4137,11491,2048,2048
4138,11494,2048,2048
4139,11497,2048,2048
4140,11500,2048,2048
4141,11502,2048,2048
4142,11505,2048,2048
4143,11508,2048,2048
4144,11511,2048,2048
4145,11513,2048,2048
4146,11516,2048,2048
4147,11519,2048,2048
4148,11522,2048,2048
4149,11525,2048,2048
4150,11527,2048,2048
4151,11530,2048,2048
4152,11533,2048,2048
4153,11536,2048,2048
4154,11538,2048,2048
4155,11541,2048,2048
4156,11544,2048,2048
4157,11547,2048,2048
4158,11550,2048,2048
4159,11552,2048,2048
4160,11555,2048,2048
4161,11558,2048,2048
4162,11561,2048,2048
4163,11563,2048,2048
4164,11566,2048,2048
4165,11569,2048,2048
4166,11572,2048,2048
4167,11575,2048,2048
4168,11577,2048,2048
4169,11580,2048,2048
4170,11583,2048,2048
4171,11586,2048,2048
4172,11588,2048,2048
4173,11591,2048,2048
4174,11594,2048,2048
4175,11597,2048,2048
4176,11600,2048,2048
4177,11602,2048,2048
4178,11605,2048,2048
4179,11608,2048,2048
4180,11611,2048,2048
4181,11613,2048,2048
4182,11616,2048,2048
4183,11619,2048,2048
4184,11622,2048,2048
4185,11625,2048,2048
4186,11627,2048,2048
4187,11630,2048,2048
4188,11633,2048,2048
4189,11636,2048,2048
4190,11638,2048,2048
4191,11641,2048,2048
4192,11644,2048,2048
4193,11647,2048,2048
4194,11650,2048,2048
4195,11652,2048,2048
4196,11655,2048,2048
4197,11658,2048,2048
4198,11661,2048,2048
4199,11663,2048,2048
4200,11666,2048,2048
4201,11669,2048,2048
4202,11672,2048,2048
4203,11675,2048,2048
4204,11677,2048,2048
4205,11680,2048,2048
4206,11683,2048,2048
4207,11686,2048,2048
4208,11688,2048,2048
4209,11691,2048,2048
4210,11694,2048,2048
4211,11697,2048,2048
4212,11700,2048,2048
4213,11702,2048,2048
4214,11705,2048,2048
4215,11708,2048,2048
4216,11711,2048,2048
4217,11713,2048,2048
4218,11716,2048,2048
4219,11719,2048,2048
4220,11722,2048,2048
4221,11725,2048,2048
4222,11727,2048,2048
4223,11730,2048,2048
4224,11733,2048,2048
4225,11736,2048,2048
4226,11738,2051,2051
4227,11741,2052,2052
4228,11744,2055,2055
4229,11747,2058,2058
4230,11750,2063,2063
4231,11752,2069,2069
4232,11755,2078,2078
4233,11758,2089,2089
4234,11761,2103,2103
4235,11763,2120,2120
4236,11766,2141,2141
4237,11769,2165,2165
4238,11772,2192,2192
4239,11775,2221,2221
4240,11777,2252,2252
4241,11780,2284,2284
4242,11783,2314,2314
4243,11786,2342,2342
4244,11788,2365,2365
4245,11791,2383,2383
4246,11794,2394,2394
4247,11797,2398,2398
4248,11800,2394,2394
4249,11802,2383,2383
4250,11805,2365,2365
4251,11808,2342,2342
4252,11811,2314,2314
4253,11813,2284,2284
4254,11816,2252,2252
4255,11819,2221,2221
4256,11822,2192,2192
4257,11825,2165,2165
4258,11827,2141,2141
4259,11830,2120,2120
4260,11833,2103,2103
4261,11836,2089,2089
4262,11838,2078,2078
4263,11841,2069,2069
4264,11844,2063,2063
4265,11847,2058,2058
4266,11850,2055,2055
4267,11852,2052,2052
4268,11855,2048,2048
4269,11858,2048,2048
4270,11861,2048,2048
4271,11863,2048,2048
4272,11866,2048,2048
4273,11869,2048,2048
4274,11872,2048,2048
4275,11875,2048,2048
4276,11877,2048,2048
4277,11880,2048,2048
4278,11883,2048,2048
4279,11886,2048,2048
4280,11888,2048,2048
4281,11891,2048,2048
4282,11894,2048,2048
4283,11897,2048,2048
4284,11900,2048,2048
4285,11902,2048,2048
4286,11905,2048,2048
4287,11908,2048,2048
4288,11911,2048,2048
4289,11913,2048,2048
4290,11916,2048,2048
4291,11919,2048,2048
4292,11922,2048,2048
4293,11925,2048,2048
4294,11927,2048,2048
4295,11930,2048,2048
4296,11933,2048,2048
4297,11936,2048,2048
4298,11938,2049,2049
4299,11941,2049,2049
4300,11944,2049,2049
4301,11947,2050,2050
4302,11950,2051,2051
4303,11952,2051,2051
4304,11955,2053,2053
4305,11958,2054,2054
4306,11961,2056,2056
4307,11963,2058,2058
4308,11966,2060,2060
4309,11969,2063,2063
4310,11972,2067,2067
4311,11975,2070,2070
4312,11977,2075,2075
4313,11980,2080,2080
4314,11983,2085,2085
4315,11986,2091,2091
4316,11988,2097,2097
4317,11991,2103,2103
4318,11994,2109,2109
4319,11997,2115,2115
4320,12000,2120,2120
4321,12002,2125,2125
4322,12005,2130,2130
4323,12008,2133,2133
4324,12011,2136,2136
4325,12013,2137,2137
4326,12016,2138,2138
4327,12019,2137,2137
4328,12022,2136,2136
4329,12025,2133,2133
4330,12027,2130,2130
4331,12030,2125,2125
4332,12033,2120,2120
4333,12036,2115,2115
4334,12038,2109,2109
4335,12041,2103,2103
4336,12044,2097,2097
4337,12047,2091,2091
4338,12050,2085,2085
4339,12052,2080,2080
4340,12055,2075,2075
4341,12058,2070,2070
4342,12061,2067,2067
4343,12063,2063,2063
4344,12066,2060,2060
4345,12069,2058,2058
4346,12072,2056,2056
4347,12075,2054,2054
4348,12077,2053,2053
4349,12080,2051,2051
4350,12083,2051,2051
4351,12086,2050,2050
4352,12088,2049,2049
4353,12091,2049,2049
4354,12094,2048,2048
4355,12097,2048,2048
4356,12100,2048,2048
4357,12102,2048,2048
4358,12105,2048,2048
4359,12108,2048,2048
4360,12111,2048,2048
4361,12113,2048,2048
4362,12116,2048,2048
4363,12119,2048,2048
4364,12122,2048,2048
4365,12125,2048,2048
4366,12127,2048,2048
4367,12130,2048,2048
4368,12133,2048,2048
4369,12136,2048,2048
4370,12138,2048,2048
4371,12141,2048,2048
4372,12144,2048,2048
4373,12147,2048,2048
4374,12150,2048,2048
4375,12152,2048,2048
4376,12155,2048,2048
4377,12158,2048,2048
4378,12161,2048,2048
4379,12163,2048,2048
4380,12166,2048,2048
4381,12169,2048,2048
4382,12172,2048,2048
4383,12175,2048,2048
4384,12177,2048,2048
4385,12180,2048,2048
4386,12183,2048,2048
4387,12186,2048,2048
4388,12188,2048,2048
4389,12191,2048,2048
4390,12194,2048,2048
4391,12197,2048,2048
4392,12200,2048,2048
4393,12202,2048,2048
4394,12205,2048,2048
4395,12208,2048,2048
4396,12211,2048,2048
4397,12213,2048,2048
4398,12216,2048,2048
4399,12219,2048,2048
4400,12222,2048,2048
4401,12225,2048,2048
4402,12227,2048,2048
4403,12230,2048,2048
4404,12233,2048,2048
4405,12236,2048,2048
4406,12238,2048,2048
4407,12241,2048,2048
4408,12244,2048,2048
4409,12247,2048,2048
4410,12250,2048,2048
4411,12252,2048,2048
4412,12255,2048,2048
4413,12258,2048,2048
4414,12261,2048,2048
4415,12263,2048,2048
4416,12266,2048,2048
4417,12269,2048,2048
4418,12272,2048,2048
4419,12275,2048,2048
4420,12277,2048,2048
4421,12280,2048,2048
4422,12283,2048,2048
4423,12286,2048,2048
4424,12288,2048,2048
4425,12291,2048,2048
4426,12294,2048,2048
4427,12297,2048,2048
4428,12300,2048,2048
4429,12302,2051,2051
4430,12305,2052,2052
4431,12308,2055,2055
4432,12311,2058,2058
4433,12313,2063,2063
4434,12316,2069,2069
4435,12319,2078,2078
4436,12322,2089,2089
4437,12325,2103,2103
4438,12327,2120,2120
4439,12330,2141,2141
4440,12333,2165,2165
4441,12336,2192,2192
4442,12338,2221,2221
4443,12341,2252,2252
4444,12344,2284,2284
4445,12347,2314,2314
4446,12350,2342,2342
4447,12352,2365,2365
4448,12355,2383,2383
4449,12358,2394,2394
4450,12361,2398,2398
4451,12363,2394,2394
4452,12366,2383,2383
4453,12369,2365,2365
4454,12372,2342,2342
4455,12375,2314,2314
4456,12377,2284,2284
4457,12380,2252,2252
4458,12383,2221,2221
4459,12386,2192,2192
4460,12388,2165,2165
4461,12391,2141,2141
4462,12394,2120,2120
4463,12397,2103,2103
4464,12400,2089,2089
4465,12402,2078,2078
4466,12405,2069,2069
4467,12408,2063,2063
4468,12411,2058,2058
4469,12413,2055,2055
4470,12416,2052,2052
4471,12419,2048,2048
4472,12422,2048,2048
4473,12425,2048,2048
4474,12427,2048,2048
4475,12430,2048,2048
4476,12433,2048,2048
4477,12436,2048,2048
4478,12438,2048,2048
4479,12441,2048,2048
4480,12444,2048,2048
4481,12447,2048,2048
4482,12450,2048,2048
4483,12452,2048,2048
4484,12455,2048,2048
4485,12458,2048,2048
4486,12461,2048,2048
4487,12463,2048,2048
4488,12466,2048,2048
4489,12469,2048,2048
4490,12472,2048,2048
4491,12475,2048,2048
4492,12477,2048,2048
4493,12480,2048,2048
4494,12483,2048,2048
4495,12486,2048,2048
4496,12488,2048,2048
4497,12491,2048,2048
4498,12494,2048,2048
4499,12497,2048,2048
4500,12500,2048,2048
4501,12502,2049,2049
4502,12505,2049,2049
4503,12508,2049,2049
4504,12511,2050,2050
4505,12513,2051,2051
4506,12516,2051,2051
4507,12519,2053,2053
4508,12522,2054,2054
4509,12525,2056,2056
4510,12527,2058,2058
4511,12530,2060,2060
4512,12533,2063,2063
4513,12536,2067,2067
4514,12538,2070,2070
4515,12541,2075,2075
4516,12544,2080,2080
4517,12547,2085,2085
4518,12550,2091,2091
4519,12552,2097,2097
4520,12555,2103,2103
4521,12558,2109,2109
4522,12561,2115,2115
4523,12563,2120,2120
4524,12566,2125,2125
4525,12569,2130,2130
4526,12572,2133,2133
4527,12575,2136,2136
4528,12577,2137,2137
4529,12580,2138,2138
4530,12583,2137,2137
4531,12586,2136,2136
4532,12588,2133,2133
4533,12591,2130,2130
4534,12594,2125,2125
4535,12597,2120,2120
4536,12600,2115,2115
4537,12602,2109,2109
4538,12605,2103,2103
4539,12608,2097,2097
4540,12611,2091,2091
4541,12613,2085,2085
4542,12616,2080,2080
4543,12619,2075,2075
4544,12622,2070,2070
4545,12625,2067,2067
4546,12627,2063,2063
4547,12630,2060,2060
4548,12633,2058,2058
4549,12636,2056,2056
4550,12638,2054,2054
4551,12641,2053,2053
4552,12644,2051,2051
4553,12647,2051,2051
4554,12650,2050,2050
4555,12652,2049,2049
4556,12655,2049,2049
4557,12658,2048,2048
4558,12661,2048,2048
4559,12663,2048,2048
4560,12666,2048,2048
4561,12669,2048,2048
4562,12672,2048,2048
4563,12675,2048,2048
4564,12677,2048,2048
4565,12680,2048,2048
4566,12683,2048,2048
4567,12686,2048,2048
4568,12688,2048,2048
4569,12691,2048,2048
4570,12694,2048,2048
4571,12697,2048,2048
4572,12700,2048,2048
4573,12702,2048,2048
4574,12705,2048,2048
4575,12708,2048,2048
4576,12711,2048,2048
4577,12713,2048,2048
4578,12716,2048,2048
4579,12719,2048,2048
4580,12722,2048,2048
4581,12725,2048,2048
4582,12727,2048,2048
4583,12730,2048,2048
4584,12733,2048,2048
4585,12736,2048,2048
4586,12738,2048,2048
4587,12741,2048,2048
4588,12744,2048,2048
4589,12747,2048,2048
4590,12750,2048,2048
4591,12752,2048,2048
4592,12755,2048,2048
4593,12758,2048,2048
4594,12761,2048,2048
4595,12763,2048,2048
4596,12766,2048,2048
4597,12769,2048,2048
4598,12772,2048,2048
4599,12775,2048,2048
4600,12777,2048,2048
4601,12780,2048,2048
4602,12783,2048,2048
4603,12786,2048,2048
4604,12788,2048,2048
4605,12791,2048,2048
4606,12794,2048,2048
4607,12797,2048,2048
4608,12800,2048,2048
4609,12802,2048,2048
4610,12805,2048,2048
4611,12808,2048,2048
4612,12811,2048,2048
4613,12813,2048,2048
4614,12816,2048,2048
4615,12819,2048,2048
4616,12822,2048,2048
4617,12825,2048,2048
4618,12827,2048,2048
4619,12830,2048,2048
4620,12833,2048,2048
4621,12836,2048,2048
4622,12838,2048,2048
4623,12841,2048,2048
4624,12844,2048,2048
4625,12847,2048,2048
4626,12850,2048,2048
4627,12852,2048,2048
4628,12855,2048,2048
4629,12858,2048,2048
4630,12861,2048,2048
4631,12863,2048,2048
4632,12866,2048,2048
4633,12869,2048,2048
4634,12872,2048,2048
4635,12875,2048,2048
4636,12877,2048,2048
4637,12880,2048,2048
4638,12883,2048,2048
4639,12886,2048,2048
4640,12888,2048,2048
4641,12891,2048,2048
4642,12894,2048,2048
4643,12897,2048,2048
4644,12900,2048,2048
4645,12902,2048,2048
4646,12905,2048,2048
4647,12908,2048,2048
4648,12911,2048,2048
4649,12913,2048,2048
4650,12916,2048,2048
4651,12919,2048,2048
4652,12922,2048,2048
4653,12925,2048,2048
4654,12927,2048,2048
4655,12930,2048,2048
4656,12933,2048,2048
4657,12936,2048,2048
4658,12938,2048,2048
4659,12941,2048,2048
4660,12944,2048,2048
4661,12947,2048,2048
4662,12950,2048,2048
4663,12952,2048,2048
4664,12955,2048,2048
4665,12958,2048,2048
4666,12961,2048,2048
4667,12963,2048,2048
4668,12966,2048,2048
4669,12969,2048,2048
4670,12972,2048,2048
4671,12975,2048,2048
4672,12977,2048,2048
4673,12980,2048,2048
4674,12983,2048,2048
4675,12986,2048,2048
4676,12988,2048,2048
4677,12991,2048,2048
4678,12994,2048,2048
4679,12997,2048,2048
4680,13000,2048,2048
4681,13002,2048,2048
4682,13005,2048,2048
4683,13008,2051,2051
4684,13011,2052,2052
4685,13013,2055,2055
4686,13016,2058,2058
4687,13019,2063,2063
4688,13022,2069,2069
4689,13025,2078,2078
4690,13027,2089,2089
4691,13030,2103,2103
4692,13033,2120,2120
4693,13036,2141,2141
4694,13038,2165,2165
4695,13041,2192,2192
4696,13044,2221,2221
4697,13047,2252,2252
4698,13050,2284,2284
4699,13052,2314,2314
4700,13055,2342,2342
4701,13058,2365,2365
4702,13061,2383,2383
4703,13063,2394,2394
4704,13066,2398,2398
4705,13069,2394,2394
4706,13072,2383,2383
4707,13075,2365,2365
4708,13077,2342,2342
4709,13080,2314,2314
4710,13083,2284,2284
4711,13086,2252,2252
4712,13088,2221,2221
4713,13091,2192,2192
4714,13094,2165,2165
4715,13097,2141,2141
4716,13100,2120,2120
4717,13102,2103,2103
4718,13105,2089,2089
4719,13108,2078,2078
4720,13111,2069,2069
4721,13113,2063,2063
4722,13116,2058,2058
4723,13119,2055,2055
4724,13122,2052,2052
4725,13125,2048,2048
4726,13127,2048,2048
4727,13130,2048,2048
4728,13133,2048,2048
4729,13136,2048,2048
4730,13138,2048,2048
4731,13141,2048,2048
4732,13144,2048,2048
4733,13147,2048,2048
4734,13150,2048,2048
4735,13152,2048,2048
4736,13155,2048,2048
4737,13158,2048,2048
4738,13161,2048,2048
4739,13163,2048,2048
4740,13166,2048,2048
4741,13169,2048,2048
4742,13172,2048,2048
4743,13175,2048,2048
4744,13177,2048,2048
4745,13180,2048,2048
4746,13183,2048,2048
4747,13186,2048,2048
4748,13188,2048,2048
4749,13191,2048,2048
4750,13194,2048,2048
4751,13197,2048,2048
4752,13200,2048,2048
4753,13202,2048,2048
4754,13205,2048,2048
4755,13208,2049,2049
4756,13211,2049,2049
4757,13213,2049,2049
4758,13216,2050,2050
4759,13219,2051,2051
4760,13222,2051,2051
4761,13225,2053,2053
4762,13227,2054,2054
4763,13230,2056,2056
4764,13233,2058,2058
4765,13236,2060,2060
4766,13238,2063,2063
4767,13241,2067,2067
4768,13244,2070,2070
4769,13247,2075,2075
4770,13250,2080,2080
4771,13252,2085,2085
4772,13255,2091,2091
4773,13258,2097,2097
4774,13261,2103,2103
4775,13263,2109,2109
4776,13266,2115,2115
4777,13269,2120,2120
4778,13272,2125,2125
4779,13275,2130,2130
4780,13277,2133,2133
4781,13280,2136,2136
4782,13283,2137,2137
4783,13286,2138,2138
4784,13288,2137,2137
4785,13291,2136,2136
4786,13294,2133,2133
4787,13297,2130,2130
4788,13300,2125,2125
4789,13302,2120,2120
4790,13305,2115,2115
4791,13308,2109,2109
4792,13311,2103,2103
4793,13313,2097,2097
4794,13316,2091,2091
4795,13319,2085,2085
4796,13322,2080,2080
4797,13325,2075,2075
4798,13327,2070,2070
4799,13330,2067,2067
4800,13333,2063,2063
4801,13336,2060,2060
4802,13338,2058,2058
4803,13341,2056,2056
4804,13344,2054,2054
4805,13347,2053,2053
4806,13350,2051,2051
4807,13352,2051,2051
4808,13355,2050,2050
4809,13358,2049,2049
4810,13361,2049,2049
4811,13363,2048,2048
4812,13366,2048,2048
4813,13369,2048,2048
4814,13372,2048,2048
4815,13375,2048,2048
4816,13377,2048,2048
4817,13380,2048,2048
4818,13383,2048,2048
4819,13386,2048,2048
4820,13388,2048,2048
4821,13391,2048,2048
4822,13394,2048,2048
4823,13397,2048,2048
4824,13400,2048,2048
4825,13402,2048,2048
4826,13405,2048,2048
4827,13408,2048,2048
4828,13411,2048,2048
4829,13413,2048,2048
4830,13416,2048,2048
4831,13419,2048,2048
4832,13422,2048,2048
4833,13425,2048,2048
4834,13427,2048,2048
4835,13430,2048,2048
4836,13433,2048,2048
4837,13436,2048,2048
4838,13438,2048,2048
4839,13441,2048,2048
4840,13444,2048,2048
4841,13447,2048,2048
4842,13450,2048,2048
4843,13452,2048,2048
4844,13455,2048,2048
4845,13458,2048,2048
4846,13461,2048,2048
4847,13463,2048,2048
4848,13466,2048,2048
4849,13469,2048,2048
4850,13472,2048,2048
4851,13475,2048,2048
4852,13477,2048,2048
4853,13480,2048,2048
4854,13483,2048,2048
4855,13486,2048,2048
4856,13488,2048,2048
4857,13491,2048,2048
4858,13494,2048,2048
4859,13497,2048,2048
4860,13500,2048,2048
4861,13502,2048,2048
4862,13505,2048,2048
4863,13508,2048,2048
4864,13511,2048,2048
4865,13513,2048,2048
4866,13516,2048,2048
4867,13519,2048,2048
4868,13522,2048,2048
4869,13525,2048,2048
4870,13527,2048,2048
4871,13530,2048,2048
4872,13533,2048,2048
4873,13536,2048,2048
4874,13538,2048,2048
4875,13541,2048,2048
4876,13544,2048,2048
4877,13547,2048,2048
4878,13550,2048,2048
4879,13552,2048,2048
4880,13555,2048,2048
4881,13558,2048,2048
4882,13561,2048,2048
4883,13563,2048,2048
4884,13566,2048,2048
4885,13569,2048,2048
4886,13572,2048,2048
4887,13575,2048,2048
4888,13577,2048,2048
4889,13580,2048,2048
4890,13583,2048,2048
4891,13586,2048,2048
4892,13588,2048,2048
4893,13591,2048,2048
4894,13594,2048,2048
4895,13597,2048,2048
4896,13600,2048,2048
4897,13602,2048,2048
4898,13605,2048,2048
4899,13608,2048,2048
4900,13611,2048,2048
4901,13613,2048,2048
4902,13616,2051,2051
4903,13619,2052,2052
4904,13622,2055,2055
4905,13625,2058,2058
4906,13627,2063,2063
4907,13630,2069,2069
4908,13633,2078,2078
4909,13636,2089,2089
4910,13638,2103,2103
4911,13641,2120,2120
4912,13644,2141,2141
4913,13647,2165,2165
4914,13650,2192,2192
4915,13652,2221,2221
4916,13655,2252,2252
4917,13658,2284,2284
4918,13661,2314,2314
4919,13663,2342,2342
4920,13666,2365,2365
4921,13669,2383,2383
4922,13672,2394,2394
4923,13675,2398,2398
4924,13677,2394,2394
4925,13680,2383,2383
4926,13683,2365,2365
4927,13686,2342,2342
4928,13688,2314,2314
4929,13691,2284,2284
4930,13694,2252,2252
4931,13697,2221,2221
4932,13700,2192,2192
4933,13702,2165,2165
4934,13705,2141,2141
4935,13708,2120,2120
4936,13711,2103,2103
4937,13713,2089,2089
4938,13716,2078,2078
4939,13719,2069,2069
4940,13722,2063,2063
4941,13725,2058,2058
4942,13727,2055,2055
4943,13730,2052,2052
4944,13733,2048,2048
4945,13736,2048,2048
4946,13738,2048,2048
4947,13741,2048,2048
4948,13744,2048,2048
4949,13747,2048,2048
4950,13750,2048,2048
4951,13752,2048,2048
4952,13755,2048,2048
4953,13758,2048,2048
4954,13761,2048,2048
4955,13763,2048,2048
4956,13766,2048,2048
4957,13769,2048,2048
4958,13772,2048,2048
4959,13775,2048,2048
4960,13777,2048,2048
4961,13780,2048,2048
4962,13783,2048,2048
4963,13786,2048,2048
4964,13788,2048,2048
4965,13791,2048,2048
4966,13794,2048,2048
4967,13797,2048,2048
4968,13800,2048,2048
4969,13802,2048,2048
4970,13805,2048,2048
4971,13808,2048,2048
4972,13811,2048,2048
4973,13813,2048,2048
4974,13816,2049,2049
4975,13819,2049,2049
4976,13822,2049,2049
4977,13825,2050,2050
4978,13827,2051,2051
4979,13830,2051,2051
4980,13833,2053,2053
4981,13836,2054,2054
4982,13838,2056,2056
4983,13841,2058,2058
4984,13844,2060,2060
4985,13847,2063,2063
4986,13850,2067,2067
4987,13852,2070,2070
4988,13855,2075,2075
4989,13858,2080,2080
4990,13861,2085,2085
4991,13863,2091,2091
4992,13866,2097,2097
4993,13869,2103,2103
4994,13872,2109,2109
4995,13875,2115,2115
4996,13877,2120,2120
4997,13880,2125,2125
4998,13883,2130,2130
4999,13886,2133,2133
5000,13888,2136,2136
5001,13891,2137,2137
5002,13894,2138,2138
5003,13897,2137,2137
5004,13900,2136,2136
5005,13902,2133,2133
5006,13905,2130,2130
5007,13908,2125,2125
5008,13911,2120,2120
5009,13913,2115,2115
5010,13916,2109,2109
5011,13919,2103,2103
5012,13922,2097,2097
5013,13925,2091,2091
5014,13927,2085,2085
5015,13930,2080,2080
5016,13933,2075,2075
5017,13936,2070,2070
5018,13938,2067,2067
5019,13941,2063,2063
5020,13944,2060,2060
5021,13947,2058,2058
5022,13950,2056,2056
5023,13952,2054,2054
5024,13955,2053,2053
5025,13958,2051,2051
5026,13961,2051,2051
5027,13963,2050,2050
5028,13966,2049,2049
5029,13969,2049,2049
5030,13972,2048,2048
5031,13975,2048,2048
5032,13977,2048,2048
5033,13980,2048,2048
5034,13983,2048,2048
5035,13986,2048,2048
5036,13988,2048,2048
5037,13991,2048,2048
5038,13994,2048,2048
5039,13997,2048,2048
5040,14000,2048,2048
5041,14002,2048,2048
5042,14005,2048,2048
5043,14008,2048,2048
5044,14011,2048,2048
5045,14013,2048,2048
5046,14016,2048,2048
5047,14019,2048,2048
5048,14022,2048,2048
5049,14025,2048,2048
5050,14027,2048,2048
5051,14030,2048,2048
5052,14033,2048,2048
5053,14036,2048,2048
5054,14038,2048,2048
5055,14041,2048,2048
5056,14044,2048,2048
5057,14047,2048,2048
5058,14050,2048,2048
5059,14052,2048,2048
5060,14055,2048,2048
5061,14058,2048,2048
5062,14061,2048,2048
5063,14063,2048,2048
5064,14066,2048,2048
5065,14069,2048,2048
5066,14072,2048,2048
5067,14075,2048,2048
5068,14077,2048,2048
5069,14080,2048,2048
5070,14083,2048,2048
5071,14086,2048,2048
5072,14088,2048,2048
5073,14091,2048,2048
5074,14094,2048,2048
5075,14097,2048,2048
5076,14100,2048,2048
5077,14102,2048,2048
5078,14105,2048,2048
5079,14108,2048,2048
5080,14111,2048,2048
5081,14113,2048,2048
5082,14116,2048,2048
5083,14119,2048,2048
5084,14122,2048,2048
5085,14125,2048,2048
5086,14127,2048,2048
5087,14130,2048,2048
5088,14133,2048,2048
5089,14136,2048,2048
5090,14138,2048,2048
5091,14141,2048,2048
5092,14144,2048,2048
5093,14147,2048,2048
5094,14150,2048,2048
5095,14152,2048,2048
5096,14155,2048,2048
5097,14158,2048,2048
5098,14161,2048,2048
5099,14163,2048,2048
5100,14166,2048,2048
5101,14169,2048,2048
5102,14172,2048,2048
5103,14175,2048,2048
5104,14177,2048,2048
5105,14180,2048,2048
5106,14183,2048,2048
5107,14186,2048,2048
5108,14188,2048,2048
5109,14191,2048,2048
5110,14194,2048,2048
5111,14197,2048,2048
5112,14200,2048,2048
5113,14202,2048,2048
5114,14205,2048,2048
5115,14208,2051,2051
5116,14211,2052,2052
5117,14213,2055,2055
5118,14216,2058,2058
5119,14219,2063,2063
5120,14222,2069,2069
5121,14225,2078,2078
5122,14227,2089,2089
5123,14230,2103,2103
5124,14233,2120,2120
5125,14236,2141,2141
5126,14238,2165,2165
5127,14241,2192,2192
5128,14244,2221,2221
5129,14247,2252,2252
5130,14250,2284,2284
5131,14252,2314,2314
5132,14255,2342,2342
5133,14258,2365,2365
5134,14261,2383,2383
5135,14263,2394,2394
5136,14266,2398,2398
5137,14269,2394,2394
5138,14272,2383,2383
5139,14275,2365,2365
5140,14277,2342,2342
5141,14280,2314,2314
5142,14283,2284,2284
5143,14286,2252,2252
5144,14288,2221,2221
5145,14291,2192,2192
5146,14294,2165,2165
5147,14297,2141,2141
5148,14300,2120,2120
5149,14302,2103,2103
5150,14305,2089,2089
5151,14308,2078,2078
5152,14311,2069,2069
5153,14313,2063,2063
5154,14316,2058,2058
5155,14319,2055,2055
5156,14322,2052,2052
5157,14325,2048,2048
5158,14327,2048,2048
5159,14330,2048,2048
5160,14333,2048,2048
5161,14336,2048,2048
5162,14338,2048,2048
5163,14341,2048,2048
5164,14344,2048,2048
5165,14347,2048,2048
5166,14350,2048,2048
5167,14352,2048,2048
5168,14355,2048,2048
5169,14358,2048,2048
5170,14361,2048,2048
5171,14363,2048,2048
5172,14366,2048,2048
5173,14369,2048,2048
5174,14372,2048,2048
5175,14375,2048,2048
5176,14377,2048,2048
5177,14380,2048,2048
5178,14383,2048,2048
5179,14386,2048,2048
5180,14388,2048,2048
5181,14391,2048,2048
5182,14394,2048,2048
5183,14397,2048,2048
5184,14400,2048,2048
5185,14402,2048,2048
5186,14405,2048,2048
5187,14408,2049,2049
5188,14411,2049,2049
5189,14413,2049,2049
5190,14416,2050,2050
5191,14419,2051,2051
5192,14422,2051,2051
5193,14425,2053,2053
5194,14427,2054,2054
5195,14430,2056,2056
5196,14433,2058,2058
5197,14436,2060,2060
5198,14438,2063,2063
5199,14441,2067,2067
5200,14444,2070,2070
5201,14447,2075,2075
5202,14450,2080,2080
5203,14452,2085,2085
5204,14455,2091,2091
5205,14458,2097,2097
5206,14461,2103,2103
5207,14463,2109,2109
5208,14466,2115,2115
5209,14469,2120,2120
5210,14472,2125,2125
5211,14475,2130,2130
5212,14477,2133,2133
5213,14480,2136,2136
5214,14483,2137,2137
5215,14486,2138,2138
5216,14488,2137,2137
5217,14491,2136,2136
5218,14494,2133,2133
5219,14497,2130,2130
5220,14500,2125,2125
5221,14502,2120,2120
5222,14505,2115,2115
5223,14508,2109,2109
5224,14511,2103,2103
5225,14513,2097,2097
5226,14516,2091,2091
5227,14519,2085,2085
5228,14522,2080,2080
5229,14525,2075,2075
5230,14527,2070,2070
5231,14530,2067,2067
5232,14533,2063,2063
5233,14536,2060,2060
5234,14538,2058,2058
5235,14541,2056,2056
5236,14544,2054,2054
5237,14547,2053,2053
5238,14550,2051,2051
5239,14552,2051,2051
5240,14555,2050,2050
5241,14558,2049,2049
5242,14561,2049,2049
5243,14563,2048,2048
5244,14566,2048,2048
5245,14569,2048,2048
5246,14572,2048,2048
5247,14575,2048,2048
5248,14577,2048,2048
5249,14580,2048,2048
5250,14583,2048,2048
5251,14586,2048,2048
5252,14588,2048,2048
5253,14591,2048,2048
5254,14594,2048,2048
5255,14597,2048,2048
5256,14600,2048,2048
5257,14602,2048,2048
5258,14605,2048,2048
5259,14608,2048,2048
5260,14611,2048,2048
5261,14613,2048,2048
5262,14616,2048,2048
5263,14619,2048,2048
5264,14622,2048,2048
5265,14625,2048,2048
5266,14627,2048,2048
5267,14630,2048,2048
5268,14633,2048,2048
5269,14636,2048,2048
5270,14638,2048,2048
5271,14641,2048,2048
5272,14644,2048,2048
5273,14647,2048,2048
5274,14650,2048,2048
5275,14652,2048,2048
5276,14655,2048,2048
5277,14658,2048,2048
5278,14661,2048,2048
5279,14663,2048,2048
5280,14666,2048,2048
5281,14669,2048,2048
5282,14672,2048,2048
5283,14675,2048,2048
5284,14677,2048,2048
5285,14680,2048,2048
5286,14683,2048,2048
5287,14686,2048,2048
5288,14688,2048,2048
5289,14691,2048,2048
5290,14694,2048,2048
5291,14697,2048,2048
5292,14700,2048,2048
5293,14702,2048,2048
5294,14705,2048,2048
5295,14708,2048,2048
5296,14711,2048,2048
5297,14713,2048,2048
5298,14716,2048,2048
5299,14719,2048,2048
5300,14722,2048,2048
5301,14725,2048,2048
5302,14727,2048,2048
5303,14730,2048,2048
5304,14733,2048,2048
5305,14736,2048,2048
5306,14738,2048,2048
5307,14741,2048,2048
5308,14744,2048,2048
5309,14747,2048,2048
5310,14750,2048,2048
5311,14752,2048,2048
5312,14755,2048,2048
5313,14758,2048,2048
5314,14761,2048,2048
5315,14763,2048,2048
5316,14766,2048,2048
5317,14769,2048,2048
5318,14772,2048,2048
5319,14775,2048,2048
5320,14777,2048,2048
5321,14780,2048,2048
5322,14783,2048,2048
5323,14786,2048,2048
5324,14788,2048,2048
5325,14791,2048,2048
5326,14794,2048,2048
5327,14797,2048,2048
5328,14800,2048,2048
5329,14802,2048,2048
5330,14805,2048,2048
5331,14808,2048,2048
5332,14811,2048,2048
5333,14813,2048,2048
5334,14816,2048,2048
5335,14819,2048,2048
5336,14822,2048,2048
5337,14825,2048,2048
5338,14827,2048,2048
5339,14830,2048,2048
5340,14833,2048,2048
5341,14836,2048,2048
5342,14838,2048,2048
5343,14841,2048,2048
5344,14844,2048,2048
5345,14847,2048,2048
5346,14850,2048,2048
5347,14852,2048,2048
5348,14855,2048,2048
5349,14858,2048,2048
5350,14861,2048,2048
5351,14863,2048,2048
5352,14866,2048,2048
5353,14869,2048,2048
5354,14872,2048,2048
5355,14875,2048,2048
5356,14877,2048,2048
5357,14880,2048,2048
5358,14883,2048,2048
5359,14886,2048,2048
5360,14888,2048,2048
5361,14891,2048,2048
5362,14894,2048,2048
5363,14897,2048,2048
5364,14900,2048,2048
5365,14902,2048,2048
5366,14905,2048,2048
5367,14908,2048,2048
5368,14911,2048,2048
5369,14913,2048,2048
5370,14916,2048,2048
5371,14919,2048,2048
5372,14922,2048,2048
5373,14925,2048,2048
5374,14927,2048,2048
5375,14930,2048,2048
5376,14933,2048,2048
5377,14936,2048,2048
5378,14938,2048,2048
5379,14941,2048,2048
5380,14944,2048,2048
5381,14947,2048,2048
5382,14950,2048,2048
5383,14952,2048,2048
5384,14955,2048,2048
5385,14958,2048,2048
5386,14961,2048,2048
5387,14963,2048,2048
5388,14966,2051,2051
5389,14969,2052,2052
5390,14972,2055,2055
5391,14975,2058,2058
5392,14977,2063,2063
5393,14980,2069,2069
5394,14983,2078,2078
5395,14986,2089,2089
5396,14988,2103,2103
5397,14991,2120,2120
5398,14994,2141,2141
5399,14997,2165,2165
