Index,Time_ms,Raw,Filtered
0,0,2048,2048
1,2,2048,2048
2,5,2048,2048
3,8,2048,2048
4,11,2048,2048
5,13,2048,2048
6,16,2048,2048
7,19,2048,2048
8,22,2048,2048
9,25,2048,2048
10,27,2048,2048
11,30,2048,2048
12,33,2048,2048
13,36,2048,2048
14,38,2048,2048
15,41,2048,2048
16,44,2048,2048
17,47,2048,2048
18,50,2048,2048
19,52,2048,2048
20,55,2048,2048
21,58,2048,2048
22,61,2048,2048
23,63,2048,2048
24,66,2048,2048
25,69,2048,2048
26,72,2048,2048
27,75,2048,2048
28,77,2048,2048
29,80,2048,2048
30,83,2048,2048
31,86,2048,2048
32,88,2048,2048
33,91,2048,2048
34,94,2048,2048
35,97,2048,2048
36,100,2048,2048
37,102,2048,2048
38,105,2048,2048
39,108,2048,2048
40,111,2048,2048
41,113,2048,2048
42,116,2048,2048
43,119,2048,2048
44,122,2048,2048
45,125,2048,2048
46,127,2048,2048
47,130,2048,2048
48,133,2048,2048
49,136,2048,2048
50,138,2048,2048
51,141,2048,2048
52,144,2048,2048
53,147,2048,2048
54,150,2048,2048
55,152,2048,2048
56,155,2048,2048
57,158,2048,2048
58,161,2048,2048
59,163,2048,2048
60,166,2048,2048
61,169,2048,2048
62,172,2048,2048
63,175,2048,2048
64,177,2048,2048
65,180,2048,2048
66,183,2048,2048
67,186,2048,2048
68,188,2048,2048
69,191,2048,2048
70,194,2049,2049
71,197,2049,2049
72,200,2050,2050
73,202,2051,2051
74,205,2052,2052
75,208,2054,2054
76,211,2057,2057
77,213,2060,2060
78,216,2064,2064
79,219,2069,2069
80,222,2074,2074
81,225,2080,2080
82,227,2086,2086
83,230,2091,2091
84,233,2096,2096
85,236,2100,2100
86,238,2102,2102
87,241,2103,2103
88,244,2102,2102
89,247,2100,2100
90,250,2096,2096
91,252,2091,2091
92,255,2086,2086
93,258,2080,2080
94,261,2074,2074
95,263,2069,2069
96,266,2064,2064
97,269,2060,2060
98,272,2057,2057
99,275,2054,2054
100,277,2052,2052
101,280,2051,2051
102,283,2050,2050
103,286,2049,2049
104,288,2049,2049
105,291,2048,2048
106,294,2048,2048
107,297,2048,2048
108,300,2048,2048
109,302,2048,2048
110,305,2048,2048
111,308,2048,2048
112,311,2048,2048
113,313,2048,2048
114,316,2048,2048
115,319,2048,2048
116,322,2048,2048
117,325,2048,2048
118,327,2048,2048
119,330,2048,2048
120,333,2048,2048
121,336,2048,2048
122,338,2048,2048
123,341,2051,2051
124,344,2052,2052
125,347,2055,2055
126,350,2058,2058
127,352,2063,2063
128,355,2069,2069
129,358,2078,2078
130,361,2089,2089
131,363,2103,2103
132,366,2120,2120
133,369,2141,2141
134,372,2165,2165
135,375,2192,2192
136,377,2221,2221
137,380,2252,2252
138,383,2284,2284
139,386,2314,2314
140,388,2342,2342
141,391,2365,2365
142,394,2383,2383
143,397,2394,2394
144,400,2398,2398
145,402,2394,2394
146,405,2383,2383
147,408,2365,2365
148,411,2342,2342
149,413,2314,2314
150,416,2284,2284
151,419,2252,2252
152,422,2221,2221
153,425,2192,2192
154,427,2165,2165
155,430,2141,2141
156,433,2120,2120
157,436,2103,2103
158,438,2089,2089
159,441,2078,2078
160,444,2069,2069
161,447,2063,2063
162,450,2058,2058
163,452,2055,2055
164,455,2052,2052
165,458,2048,2048
166,461,2048,2048
167,463,2048,2048
168,466,2048,2048
169,469,2048,2048
170,472,2048,2048
171,475,2048,2048
172,477,2048,2048
173,480,2048,2048
174,483,2048,2048
175,486,2048,2048
176,488,2048,2048
177,491,2048,2048
178,494,2048,2048
179,497,2048,2048
180,500,2048,2048
181,502,2048,2048
182,505,2048,2048
183,508,2048,2048
184,511,2048,2048
185,513,2048,2048
186,516,2048,2048
187,519,2048,2048
188,522,2048,2048
189,525,2048,2048
190,527,2048,2048
191,530,2048,2048
192,533,2048,2048
193,536,2048,2048
194,538,2048,2048
195,541,2049,2049
196,544,2049,2049
197,547,2049,2049
198,550,2050,2050
199,552,2051,2051
200,555,2051,2051
201,558,2053,2053
202,561,2054,2054
203,563,2056,2056
204,566,2058,2058
205,569,2060,2060
206,572,2063,2063
207,575,2067,2067
208,577,2070,2070
209,580,2075,2075
210,583,2080,2080
211,586,2085,2085
212,588,2091,2091
213,591,2097,2097
214,594,2103,2103
215,597,2109,2109
216,600,2115,2115
217,602,2120,2120
218,605,2125,2125
219,608,2130,2130
220,611,2133,2133
221,613,2136,2136
222,616,2137,2137
223,619,2138,2138
224,622,2137,2137
225,625,2136,2136
226,627,2133,2133
227,630,2130,2130
228,633,2125,2125
229,636,2120,2120
230,638,2115,2115
231,641,2109,2109
232,644,2103,2103
233,647,2097,2097
234,650,2091,2091
235,652,2085,2085
236,655,2080,2080
237,658,2075,2075
238,661,2070,2070
239,663,2067,2067
240,666,2063,2063
241,669,2060,2060
242,672,2058,2058
243,675,2056,2056
244,677,2054,2054
245,680,2053,2053
246,683,2051,2051
247,686,2051,2051
248,688,2050,2050
249,691,2049,2049
250,694,2049,2049
251,697,2048,2048
252,700,2048,2048
253,702,2048,2048
254,705,2048,2048
255,708,2048,2048
256,711,2048,2048
257,713,2048,2048
258,716,2048,2048
259,719,2048,2048
260,722,2048,2048
261,725,2048,2048
262,727,2048,2048
263,730,2048,2048
264,733,2048,2048
265,736,2048,2048
266,738,2048,2048
267,741,2048,2048
268,744,2048,2048
269,747,2048,2048
270,750,2048,2048
271,752,2048,2048
272,755,2048,2048
273,758,2048,2048
274,761,2048,2048
275,763,2048,2048
276,766,2048,2048
277,769,2048,2048
278,772,2048,2048
279,775,2048,2048
280,777,2048,2048
281,780,2048,2048
282,783,2048,2048
283,786,2048,2048
284,788,2048,2048
285,791,2048,2048
286,794,2048,2048
287,797,2048,2048
288,800,2048,2048
289,802,2048,2048
290,805,2048,2048
291,808,2048,2048
292,811,2048,2048
293,813,2048,2048
294,816,2048,2048
295,819,2048,2048
296,822,2048,2048
297,825,2048,2048
298,827,2048,2048
299,830,2048,2048
300,833,2048,2048
301,836,2048,2048
302,838,2048,2048
303,841,2048,2048
304,844,2048,2048
305,847,2048,2048
306,850,2048,2048
307,852,2048,2048
308,855,2048,2048
309,858,2048,2048
310,861,2048,2048
311,863,2048,2048
312,866,2048,2048
313,869,2048,2048
314,872,2048,2048
315,875,2048,2048
316,877,2048,2048
317,880,2048,2048
318,883,2048,2048
319,886,2048,2048
320,888,2048,2048
321,891,2048,2048
322,894,2048,2048
323,897,2048,2048
324,900,2048,2048
325,902,2048,2048
326,905,2048,2048
327,908,2048,2048
328,911,2048,2048
329,913,2048,2048
330,916,2048,2048
331,919,2048,2048
332,922,2048,2048
333,925,2048,2048
334,927,2048,2048
335,930,2048,2048
336,933,2048,2048
337,936,2048,2048
338,938,2048,2048
339,941,2048,2048
340,944,2048,2048
341,947,2048,2048
342,950,2048,2048
343,952,2048,2048
344,955,2048,2048
345,958,2048,2048
346,961,2048,2048
347,963,2048,2048
348,966,2048,2048
349,969,2048,2048
350,972,2048,2048
351,975,2048,2048
352,977,2048,2048
353,980,2048,2048
354,983,2048,2048
355,986,2048,2048
356,988,2048,2048
357,991,2048,2048
358,994,2049,2049
359,997,2049,2049
360,1000,2050,2050
361,1002,2051,2051
362,1005,2052,2052
363,1008,2054,2054
364,1011,2057,2057
365,1013,2060,2060
366,1016,2064,2064
367,1019,2069,2069
368,1022,2074,2074
369,1025,2080,2080
370,1027,2086,2086
371,1030,2091,2091
372,1033,2096,2096
373,1036,2100,2100
374,1038,2102,2102
375,1041,2103,2103
376,1044,2102,2102
377,1047,2100,2100
378,1050,2096,2096
379,1052,2091,2091
380,1055,2086,2086
381,1058,2080,2080
382,1061,2074,2074
383,1063,2069,2069
384,1066,2064,2064
385,1069,2060,2060
386,1072,2057,2057
387,1075,2054,2054
388,1077,2052,2052
389,1080,2051,2051
390,1083,2050,2050
391,1086,2049,2049
392,1088,2049,2049
393,1091,2048,2048
394,1094,2048,2048
395,1097,2048,2048
396,1100,2048,2048
397,1102,2048,2048
398,1105,2048,2048
399,1108,2048,2048
400,1111,2048,2048
401,1113,2048,2048
402,1116,2048,2048
403,1119,2048,2048
404,1122,2048,2048
405,1125,2048,2048
406,1127,2048,2048
407,1130,2048,2048
408,1133,2048,2048
409,1136,2048,2048
410,1138,2048,2048
411,1141,2051,2051
412,1144,2052,2052
413,1147,2055,2055
414,1150,2058,2058
415,1152,2063,2063
416,1155,2069,2069
417,1158,2078,2078
418,1161,2089,2089
419,1163,2103,2103
420,1166,2120,2120
421,1169,2141,2141
422,1172,2165,2165
423,1175,2192,2192
424,1177,2221,2221
425,1180,2252,2252
426,1183,2284,2284
427,1186,2314,2314
428,1188,2342,2342
429,1191,2365,2365
430,1194,2383,2383
431,1197,2394,2394
432,1200,2398,2398
433,1202,2394,2394
434,1205,2383,2383
435,1208,2365,2365
436,1211,2342,2342
437,1213,2314,2314
438,1216,2284,2284
439,1219,2252,2252
440,1222,2221,2221
441,1225,2192,2192
442,1227,2165,2165
443,1230,2141,2141
444,1233,2120,2120
445,1236,2103,2103
446,1238,2089,2089
447,1241,2078,2078
448,1244,2069,2069
449,1247,2063,2063
450,1250,2058,2058
451,1252,2055,2055
452,1255,2052,2052
453,1258,2048,2048
454,1261,2048,2048
455,1263,2048,2048
456,1266,2048,2048
457,1269,2048,2048
458,1272,2048,2048
459,1275,2048,2048
460,1277,2048,2048
461,1280,2048,2048
462,1283,2048,2048
463,1286,2048,2048
464,1288,2048,2048
465,1291,2048,2048
466,1294,2048,2048
467,1297,2048,2048
468,1300,2048,2048
469,1302,2048,2048
470,1305,2048,2048
471,1308,2048,2048
472,1311,2048,2048
473,1313,2048,2048
474,1316,2048,2048
475,1319,2048,2048
476,1322,2048,2048
477,1325,2048,2048
478,1327,2048,2048
479,1330,2048,2048
480,1333,2048,2048
481,1336,2048,2048
482,1338,2048,2048
483,1341,2049,2049
484,1344,2049,2049
485,1347,2049,2049
486,1350,2050,2050
487,1352,2051,2051
488,1355,2051,2051
489,1358,2053,2053
490,1361,2054,2054
491,1363,2056,2056
492,1366,2058,2058
493,1369,2060,2060
494,1372,2063,2063
495,1375,2067,2067
496,1377,2070,2070
497,1380,2075,2075
498,1383,2080,2080
499,1386,2085,2085
500,1388,2091,2091
501,1391,2097,2097
502,1394,2103,2103
503,1397,2109,2109
504,1400,2115,2115
505,1402,2120,2120
506,1405,2125,2125
507,1408,2130,2130
508,1411,2133,2133
509,1413,2136,2136
510,1416,2137,2137
511,1419,2138,2138
512,1422,2137,2137
513,1425,2136,2136
514,1427,2133,2133
515,1430,2130,2130
516,1433,2125,2125
517,1436,2120,2120
518,1438,2115,2115
519,1441,2109,2109
520,1444,2103,2103
521,1447,2097,2097
522,1450,2091,2091
523,1452,2085,2085
524,1455,2080,2080
525,1458,2075,2075
526,1461,2070,2070
527,1463,2067,2067
528,1466,2063,2063
529,1469,2060,2060
530,1472,2058,2058
531,1475,2056,2056
532,1477,2054,2054
533,1480,2053,2053
534,1483,2051,2051
535,1486,2051,2051
536,1488,2050,2050
537,1491,2049,2049
538,1494,2049,2049
539,1497,2048,2048
540,1500,2048,2048
541,1502,2048,2048
542,1505,2048,2048
543,1508,2048,2048
544,1511,2048,2048
545,1513,2048,2048
546,1516,2048,2048
547,1519,2048,2048
548,1522,2048,2048
549,1525,2048,2048
550,1527,2048,2048
551,1530,2048,2048
552,1533,2048,2048
553,1536,2048,2048
554,1538,2048,2048
555,1541,2048,2048
556,1544,2048,2048
557,1547,2048,2048
558,1550,2048,2048
559,1552,2048,2048
560,1555,2048,2048
561,1558,2048,2048
562,1561,2048,2048
563,1563,2048,2048
564,1566,2048,2048
565,1569,2048,2048
566,1572,2048,2048
567,1575,2048,2048
568,1577,2048,2048
569,1580,2048,2048
570,1583,2048,2048
571,1586,2048,2048
572,1588,2048,2048
573,1591,2048,2048
574,1594,2048,2048
575,1597,2048,2048
576,1600,2048,2048
577,1602,2048,2048
578,1605,2048,2048
579,1608,2048,2048
580,1611,2048,2048
581,1613,2048,2048
582,1616,2048,2048
583,1619,2048,2048
584,1622,2048,2048
585,1625,2048,2048
586,1627,2048,2048
587,1630,2048,2048
588,1633,2048,2048
589,1636,2048,2048
590,1638,2048,2048
591,1641,2048,2048
592,1644,2048,2048
593,1647,2048,2048
594,1650,2048,2048
595,1652,2048,2048
596,1655,2048,2048
597,1658,2048,2048
598,1661,2048,2048
599,1663,2048,2048
600,1666,2048,2048
601,1669,2048,2048
602,1672,2048,2048
603,1675,2048,2048
604,1677,2048,2048
605,1680,2048,2048
606,1683,2048,2048
607,1686,2048,2048
608,1688,2048,2048
609,1691,2048,2048
610,1694,2048,2048
611,1697,2048,2048
612,1700,2048,2048
613,1702,2048,2048
614,1705,2048,2048
615,1708,2048,2048
616,1711,2048,2048
617,1713,2048,2048
618,1716,2048,2048
619,1719,2048,2048
620,1722,2048,2048
621,1725,2048,2048
622,1727,2048,2048
623,1730,2048,2048
624,1733,2048,2048
625,1736,2048,2048
626,1738,2048,2048
627,1741,2048,2048
628,1744,2048,2048
629,1747,2048,2048
630,1750,2048,2048
631,1752,2048,2048
632,1755,2048,2048
633,1758,2048,2048
634,1761,2048,2048
635,1763,2048,2048
636,1766,2048,2048
637,1769,2048,2048
638,1772,2048,2048
639,1775,2048,2048
640,1777,2048,2048
641,1780,2048,2048
642,1783,2048,2048
643,1786,2048,2048
644,1788,2048,2048
645,1791,2048,2048
646,1794,2049,2049
647,1797,2049,2049
648,1800,2050,2050
649,1802,2051,2051
650,1805,2052,2052
651,1808,2054,2054
652,1811,2057,2057
653,1813,2060,2060
654,1816,2064,2064
655,1819,2069,2069
656,1822,2074,2074
657,1825,2080,2080
658,1827,2086,2086
659,1830,2091,2091
660,1833,2096,2096
661,1836,2100,2100
662,1838,2102,2102
663,1841,2103,2103
664,1844,2102,2102
665,1847,2100,2100
666,1850,2096,2096
667,1852,2091,2091
668,1855,2086,2086
669,1858,2080,2080
670,1861,2074,2074
671,1863,2069,2069
672,1866,2064,2064
673,1869,2060,2060
674,1872,2057,2057
675,1875,2054,2054
676,1877,2052,2052
677,1880,2051,2051
678,1883,2050,2050
679,1886,2049,2049
680,1888,2049,2049
681,1891,2048,2048
682,1894,2048,2048
683,1897,2048,2048
684,1900,2048,2048
685,1902,2048,2048
686,1905,2048,2048
687,1908,2048,2048
688,1911,2048,2048
689,1913,2048,2048
690,1916,2048,2048
691,1919,2048,2048
692,1922,2048,2048
693,1925,2048,2048
694,1927,2048,2048
695,1930,2048,2048
696,1933,2048,2048
697,1936,2048,2048
698,1938,2048,2048
699,1941,2051,2051
700,1944,2052,2052
701,1947,2055,2055
702,1950,2058,2058
703,1952,2063,2063
704,1955,2069,2069
705,1958,2078,2078
706,1961,2089,2089
707,1963,2103,2103
708,1966,2120,2120
709,1969,2141,2141
710,1972,2165,2165
711,1975,2192,2192
712,1977,2221,2221
713,1980,2252,2252
714,1983,2284,2284
715,1986,2314,2314
716,1988,2342,2342
717,1991,2365,2365
718,1994,2383,2383
719,1997,2394,2394
720,2000,2398,2398
721,2002,2394,2394
722,2005,2383,2383
723,2008,2365,2365
724,2011,2342,2342
725,2013,2314,2314
726,2016,2284,2284
727,2019,2252,2252
728,2022,2221,2221
729,2025,2192,2192
730,2027,2165,2165
731,2030,2141,2141
732,2033,2120,2120
733,2036,2103,2103
734,2038,2089,2089
735,2041,2078,2078
736,2044,2069,2069
737,2047,2063,2063
738,2050,2058,2058
739,2052,2055,2055
740,2055,2052,2052
741,2058,2048,2048
742,2061,2048,2048
743,2063,2048,2048
744,2066,2048,2048
745,2069,2048,2048
746,2072,2048,2048
747,2075,2048,2048
748,2077,2048,2048
749,2080,2048,2048
750,2083,2048,2048
751,2086,2048,2048
752,2088,2048,2048
753,2091,2048,2048
754,2094,2048,2048
755,2097,2048,2048
756,2100,2048,2048
757,2102,2048,2048
758,2105,2048,2048
759,2108,2048,2048
760,2111,2048,2048
761,2113,2048,2048
762,2116,2048,2048
763,2119,2048,2048
764,2122,2048,2048
765,2125,2048,2048
766,2127,2048,2048
767,2130,2048,2048
768,2133,2048,2048
769,2136,2048,2048
770,2138,2048,2048
771,2141,2049,2049
772,2144,2049,2049
773,2147,2049,2049
774,2150,2050,2050
775,2152,2051,2051
776,2155,2051,2051
777,2158,2053,2053
778,2161,2054,2054
779,2163,2056,2056
780,2166,2058,2058
781,2169,2060,2060
782,2172,2063,2063
783,2175,2067,2067
784,2177,2070,2070
785,2180,2075,2075
786,2183,2080,2080
787,2186,2085,2085
788,2188,2091,2091
789,2191,2097,2097
790,2194,2103,2103
791,2197,2109,2109
792,2200,2115,2115
793,2202,2120,2120
794,2205,2125,2125
795,2208,2130,2130
796,2211,2133,2133
797,2213,2136,2136
798,2216,2137,2137
799,2219,2138,2138
800,2222,2137,2137
801,2225,2136,2136
802,2227,2133,2133
803,2230,2130,2130
804,2233,2125,2125
805,2236,2120,2120
806,2238,2115,2115
807,2241,2109,2109
808,2244,2103,2103
809,2247,2097,2097
810,2250,2091,2091
811,2252,2085,2085
812,2255,2080,2080
813,2258,2075,2075
814,2261,2070,2070
815,2263,2067,2067
816,2266,2063,2063
817,2269,2060,2060
818,2272,2058,2058
819,2275,2056,2056
820,2277,2054,2054
821,2280,2053,2053
822,2283,2051,2051
823,2286,2051,2051
824,2288,2050,2050
825,2291,2049,2049
826,2294,2049,2049
827,2297,2048,2048
828,2300,2048,2048
829,2302,2048,2048
830,2305,2048,2048
831,2308,2048,2048
832,2311,2048,2048
833,2313,2048,2048
834,2316,2048,2048
835,2319,2048,2048
836,2322,2048,2048
837,2325,2048,2048
838,2327,2048,2048
839,2330,2048,2048
840,2333,2048,2048
841,2336,2048,2048
842,2338,2048,2048
843,2341,2048,2048
844,2344,2048,2048
845,2347,2048,2048
846,2350,2048,2048
847,2352,2048,2048
848,2355,2048,2048
849,2358,2048,2048
850,2361,2048,2048
851,2363,2048,2048
852,2366,2048,2048
853,2369,2048,2048
854,2372,2048,2048
855,2375,2048,2048
856,2377,2048,2048
857,2380,2048,2048
858,2383,2048,2048
859,2386,2048,2048
860,2388,2048,2048
861,2391,2048,2048
862,2394,2048,2048
863,2397,2048,2048
864,2400,2048,2048
865,2402,2048,2048
866,2405,2048,2048
867,2408,2048,2048
868,2411,2048,2048
869,2413,2048,2048
870,2416,2048,2048
871,2419,2048,2048
872,2422,2048,2048
873,2425,2048,2048
874,2427,2048,2048
875,2430,2048,2048
876,2433,2048,2048
877,2436,2048,2048
878,2438,2048,2048
879,2441,2048,2048
880,2444,2048,2048
881,2447,2048,2048
882,2450,2048,2048
883,2452,2048,2048
884,2455,2048,2048
885,2458,2048,2048
886,2461,2048,2048
887,2463,2048,2048
888,2466,2048,2048
889,2469,2048,2048
890,2472,2048,2048
891,2475,2048,2048
892,2477,2048,2048
893,2480,2048,2048
894,2483,2048,2048
895,2486,2048,2048
896,2488,2048,2048
897,2491,2048,2048
898,2494,2048,2048
899,2497,2048,2048
900,2500,2048,2048
901,2502,2048,2048
902,2505,2048,2048
903,2508,2048,2048
904,2511,2048,2048
905,2513,2048,2048
906,2516,2048,2048
907,2519,2048,2048
908,2522,2048,2048
909,2525,2048,2048
910,2527,2048,2048
911,2530,2048,2048
912,2533,2048,2048
913,2536,2048,2048
914,2538,2048,2048
915,2541,2048,2048
916,2544,2048,2048
917,2547,2048,2048
918,2550,2048,2048
919,2552,2048,2048
920,2555,2048,2048
921,2558,2048,2048
922,2561,2048,2048
923,2563,2048,2048
924,2566,2048,2048
925,2569,2048,2048
926,2572,2048,2048
927,2575,2048,2048
928,2577,2048,2048
929,2580,2048,2048
930,2583,2048,2048
931,2586,2048,2048
932,2588,2048,2048
933,2591,2048,2048
934,2594,2049,2049
935,2597,2049,2049
936,2600,2050,2050
937,2602,2051,2051
938,2605,2052,2052
939,2608,2054,2054
940,2611,2057,2057
941,2613,2060,2060
942,2616,2064,2064
943,2619,2069,2069
944,2622,2074,2074
945,2625,2080,2080
946,2627,2086,2086
947,2630,2091,2091
948,2633,2096,2096
949,2636,2100,2100
950,2638,2102,2102
951,2641,2103,2103
952,2644,2102,2102
953,2647,2100,2100
954,2650,2096,2096
955,2652,2091,2091
956,2655,2086,2086
957,2658,2080,2080
958,2661,2074,2074
959,2663,2069,2069
960,2666,2064,2064
961,2669,2060,2060
962,2672,2057,2057
963,2675,2054,2054
964,2677,2052,2052
965,2680,2051,2051
966,2683,2050,2050
967,2686,2049,2049
968,2688,2049,2049
969,2691,2048,2048
970,2694,2048,2048
971,2697,2048,2048
972,2700,2048,2048
973,2702,2048,2048
974,2705,2048,2048
975,2708,2048,2048
976,2711,2048,2048
977,2713,2048,2048
978,2716,2048,2048
979,2719,2048,2048
980,2722,2048,2048
981,2725,2048,2048
982,2727,2048,2048
983,2730,2048,2048
984,2733,2048,2048
985,2736,2048,2048
986,2738,2048,2048
987,2741,2051,2051
988,2744,2052,2052
989,2747,2055,2055
990,2750,2058,2058
991,2752,2063,2063
992,2755,2069,2069
993,2758,2078,2078
994,2761,2089,2089
995,2763,2103,2103
996,2766,2120,2120
997,2769,2141,2141
998,2772,2165,2165
999,2775,2192,2192
1000,2777,2221,2221
1001,2780,2252,2252
1002,2783,2284,2284
1003,2786,2314,2314
1004,2788,2342,2342
1005,2791,2365,2365
1006,2794,2383,2383
1007,2797,2394,2394
1008,2800,2398,2398
1009,2802,2394,2394
1010,2805,2383,2383
1011,2808,2365,2365
1012,2811,2342,2342
1013,2813,2314,2314
1014,2816,2284,2284
1015,2819,2252,2252
1016,2822,2221,2221
1017,2825,2192,2192
1018,2827,2165,2165
1019,2830,2141,2141
1020,2833,2120,2120
1021,2836,2103,2103
1022,2838,2089,2089
1023,2841,2078,2078
1024,2844,2069,2069
1025,2847,2063,2063
1026,2850,2058,2058
1027,2852,2055,2055
1028,2855,2052,2052
1029,2858,2048,2048
1030,2861,2048,2048
1031,2863,2048,2048
1032,2866,2048,2048
1033,2869,2048,2048
1034,2872,2048,2048
1035,2875,2048,2048
1036,2877,2048,2048
1037,2880,2048,2048
1038,2883,2048,2048
1039,2886,2048,2048
1040,2888,2048,2048
1041,2891,2048,2048
1042,2894,2048,2048
1043,2897,2048,2048
1044,2900,2048,2048
1045,2902,2048,2048
1046,2905,2048,2048
1047,2908,2048,2048
1048,2911,2048,2048
1049,2913,2048,2048
1050,2916,2048,2048
1051,2919,2048,2048
1052,2922,2048,2048
1053,2925,2048,2048
1054,2927,2048,2048
1055,2930,2048,2048
1056,2933,2048,2048
1057,2936,2048,2048
1058,2938,2048,2048
1059,2941,2049,2049
1060,2944,2049,2049
1061,2947,2049,2049
1062,2950,2050,2050
1063,2952,2051,2051
1064,2955,2051,2051
1065,2958,2053,2053
1066,2961,2054,2054
1067,2963,2056,2056
1068,2966,2058,2058
1069,2969,2060,2060
1070,2972,2063,2063
1071,2975,2067,2067
1072,2977,2070,2070
1073,2980,2075,2075
1074,2983,2080,2080
1075,2986,2085,2085
1076,2988,2091,2091
1077,2991,2097,2097
1078,2994,2103,2103
1079,2997,2109,2109
1080,3000,2115,2115
1081,3002,2120,2120
1082,3005,2125,2125
1083,3008,2130,2130
1084,3011,2133,2133
1085,3013,2136,2136
1086,3016,2137,2137
1087,3019,2138,2138
1088,3022,2137,2137
1089,3025,2136,2136
1090,3027,2133,2133
1091,3030,2130,2130
1092,3033,2125,2125
1093,3036,2120,2120
1094,3038,2115,2115
1095,3041,2109,2109
1096,3044,2103,2103
1097,3047,2097,2097
1098,3050,2091,2091
1099,3052,2085,2085
1100,3055,2080,2080
1101,3058,2075,2075
1102,3061,2070,2070
1103,3063,2067,2067
1104,3066,2063,2063
1105,3069,2060,2060
1106,3072,2058,2058
1107,3075,2056,2056
1108,3077,2054,2054
1109,3080,2053,2053
1110,3083,2051,2051
1111,3086,2051,2051
1112,3088,2050,2050
1113,3091,2049,2049
1114,3094,2049,2049
1115,3097,2048,2048
1116,3100,2048,2048
1117,3102,2048,2048
1118,3105,2048,2048
1119,3108,2048,2048
1120,3111,2048,2048
1121,3113,2048,2048
1122,3116,2048,2048
1123,3119,2048,2048
1124,3122,2048,2048
1125,3125,2048,2048
1126,3127,2048,2048
1127,3130,2048,2048
1128,3133,2048,2048
1129,3136,2048,2048
1130,3138,2048,2048
1131,3141,2048,2048
1132,3144,2048,2048
1133,3147,2048,2048
1134,3150,2048,2048
1135,3152,2048,2048
1136,3155,2048,2048
1137,3158,2048,2048
1138,3161,2048,2048
1139,3163,2048,2048
1140,3166,2048,2048
1141,3169,2048,2048
1142,3172,2048,2048
1143,3175,2048,2048
1144,3177,2048,2048
1145,3180,2048,2048
1146,3183,2048,2048
1147,3186,2048,2048
1148,3188,2048,2048
1149,3191,2048,2048
1150,3194,2048,2048
1151,3197,2048,2048
1152,3200,2048,2048
1153,3202,2048,2048
1154,3205,2048,2048
1155,3208,2048,2048
1156,3211,2048,2048
1157,3213,2048,2048
1158,3216,2048,2048
1159,3219,2048,2048
1160,3222,2048,2048
1161,3225,2048,2048
1162,3227,2048,2048
1163,3230,2048,2048
1164,3233,2048,2048
1165,3236,2048,2048
1166,3238,2048,2048
1167,3241,2048,2048
1168,3244,2048,2048
1169,3247,2048,2048
1170,3250,2048,2048
1171,3252,2048,2048
1172,3255,2048,2048
1173,3258,2048,2048
1174,3261,2048,2048
1175,3263,2048,2048
1176,3266,2048,2048
1177,3269,2048,2048
1178,3272,2048,2048
1179,3275,2048,2048
1180,3277,2048,2048
1181,3280,2048,2048
1182,3283,2048,2048
1183,3286,2048,2048
1184,3288,2048,2048
1185,3291,2048,2048
1186,3294,2048,2048
1187,3297,2048,2048
1188,3300,2048,2048
1189,3302,2048,2048
1190,3305,2048,2048
1191,3308,2048,2048
1192,3311,2048,2048
1193,3313,2048,2048
1194,3316,2048,2048
1195,3319,2048,2048
1196,3322,2048,2048
1197,3325,2048,2048
1198,3327,2048,2048
1199,3330,2048,2048
1200,3333,2048,2048
1201,3336,2048,2048
1202,3338,2048,2048
1203,3341,2048,2048
1204,3344,2048,2048
1205,3347,2048,2048
1206,3350,2048,2048
1207,3352,2048,2048
1208,3355,2048,2048
1209,3358,2048,2048
1210,3361,2048,2048
1211,3363,2048,2048
1212,3366,2048,2048
1213,3369,2048,2048
1214,3372,2048,2048
1215,3375,2048,2048
1216,3377,2048,2048
1217,3380,2048,2048
1218,3383,2048,2048
1219,3386,2048,2048
1220,3388,2048,2048
1221,3391,2048,2048
1222,3394,2049,2049
1223,3397,2049,2049
1224,3400,2050,2050
1225,3402,2051,2051
1226,3405,2052,2052
1227,3408,2054,2054
1228,3411,2057,2057
1229,3413,2060,2060
1230,3416,2064,2064
1231,3419,2069,2069
1232,3422,2074,2074
1233,3425,2080,2080
1234,3427,2086,2086
1235,3430,2091,2091
1236,3433,2096,2096
1237,3436,2100,2100
1238,3438,2102,2102
1239,3441,2103,2103
1240,3444,2102,2102
1241,3447,2100,2100
1242,3450,2096,2096
1243,3452,2091,2091
1244,3455,2086,2086
1245,3458,2080,2080
1246,3461,2074,2074
1247,3463,2069,2069
1248,3466,2064,2064
1249,3469,2060,2060
1250,3472,2057,2057
1251,3475,2054,2054
1252,3477,2052,2052
1253,3480,2051,2051
1254,3483,2050,2050
1255,3486,2049,2049
1256,3488,2049,2049
1257,3491,2048,2048
1258,3494,2048,2048
1259,3497,2048,2048
1260,3500,2048,2048
1261,3502,2048,2048
1262,3505,2048,2048
1263,3508,2048,2048
1264,3511,2048,2048
1265,3513,2048,2048
1266,3516,2048,2048
1267,3519,2048,2048
1268,3522,2048,2048
1269,3525,2048,2048
1270,3527,2048,2048
1271,3530,2048,2048
1272,3533,2048,2048
1273,3536,2048,2048
1274,3538,2048,2048
1275,3541,2051,2051
1276,3544,2052,2052
1277,3547,2055,2055
1278,3550,2058,2058
1279,3552,2063,2063
1280,3555,2069,2069
1281,3558,2078,2078
1282,3561,2089,2089
1283,3563,2103,2103
1284,3566,2120,2120
1285,3569,2141,2141
1286,3572,2165,2165
1287,3575,2192,2192
1288,3577,2221,2221
1289,3580,2252,2252
1290,3583,2284,2284
1291,3586,2314,2314
1292,3588,2342,2342
1293,3591,2365,2365
1294,3594,2383,2383
1295,3597,2394,2394
1296,3600,2398,2398
1297,3602,2394,2394
1298,3605,2383,2383
1299,3608,2365,2365
1300,3611,2342,2342
1301,3613,2314,2314
1302,3616,2284,2284
1303,3619,2252,2252
1304,3622,2221,2221
1305,3625,2192,2192
1306,3627,2165,2165
1307,3630,2141,2141
1308,3633,2120,2120
1309,3636,2103,2103
1310,3638,2089,2089
1311,3641,2078,2078
1312,3644,2069,2069
1313,3647,2063,2063
1314,3650,2058,2058
1315,3652,2055,2055
1316,3655,2052,2052
1317,3658,2048,2048
1318,3661,2048,2048
1319,3663,2048,2048
1320,3666,2048,2048
1321,3669,2048,2048
1322,3672,2048,2048
1323,3675,2048,2048
1324,3677,2048,2048
1325,3680,2048,2048
1326,3683,2048,2048
1327,3686,2048,2048
1328,3688,2048,2048
1329,3691,2048,2048
1330,3694,2048,2048
1331,3697,2048,2048
1332,3700,2048,2048
1333,3702,2048,2048
1334,3705,2048,2048
1335,3708,2048,2048
1336,3711,2048,2048
1337,3713,2048,2048
1338,3716,2048,2048
1339,3719,2048,2048
1340,3722,2048,2048
1341,3725,2048,2048
1342,3727,2048,2048
1343,3730,2048,2048
1344,3733,2048,2048
1345,3736,2048,2048
1346,3738,2048,2048
1347,3741,2049,2049
1348,3744,2049,2049
1349,3747,2049,2049
1350,3750,2050,2050
1351,3752,2051,2051
1352,3755,2051,2051
1353,3758,2053,2053
1354,3761,2054,2054
1355,3763,2056,2056
1356,3766,2058,2058
1357,3769,2060,2060
1358,3772,2063,2063
1359,3775,2067,2067
1360,3777,2070,2070
1361,3780,2075,2075
1362,3783,2080,2080
1363,3786,2085,2085
1364,3788,2091,2091
1365,3791,2097,2097
1366,3794,2103,2103
1367,3797,2109,2109
1368,3800,2115,2115
1369,3802,2120,2120
1370,3805,2125,2125
1371,3808,2130,2130
1372,3811,2133,2133
1373,3813,2136,2136
1374,3816,2137,2137
1375,3819,2138,2138
1376,3822,2137,2137
1377,3825,2136,2136
1378,3827,2133,2133
1379,3830,2130,2130
1380,3833,2125,2125
1381,3836,2120,2120
1382,3838,2115,2115
1383,3841,2109,2109
1384,3844,2103,2103
1385,3847,2097,2097
1386,3850,2091,2091
1387,3852,2085,2085
1388,3855,2080,2080
1389,3858,2075,2075
1390,3861,2070,2070
1391,3863,2067,2067
1392,3866,2063,2063
1393,3869,2060,2060
1394,3872,2058,2058
1395,3875,2056,2056
1396,3877,2054,2054
1397,3880,2053,2053
1398,3883,2051,2051
1399,3886,2051,2051
1400,3888,2050,2050
1401,3891,2049,2049
1402,3894,2049,2049
1403,3897,2048,2048
1404,3900,2048,2048
1405,3902,2048,2048
1406,3905,2048,2048
1407,3908,2048,2048
1408,3911,2048,2048
1409,3913,2048,2048
1410,3916,2048,2048
1411,3919,2048,2048
1412,3922,2048,2048
1413,3925,2048,2048
1414,3927,2048,2048
1415,3930,2048,2048
1416,3933,2048,2048
1417,3936,2048,2048
1418,3938,2048,2048
1419,3941,2048,2048
1420,3944,2048,2048
1421,3947,2048,2048
1422,3950,2048,2048
1423,3952,2048,2048
1424,3955,2048,2048
1425,3958,2048,2048
1426,3961,2048,2048
1427,3963,2048,2048
1428,3966,2048,2048
1429,3969,2048,2048
1430,3972,2048,2048
1431,3975,2048,2048
1432,3977,2048,2048
1433,3980,2048,2048
1434,3983,2048,2048
1435,3986,2048,2048
1436,3988,2048,2048
1437,3991,2048,2048
1438,3994,2048,2048
1439,3997,2048,2048
1440,4000,2048,2048
1441,4002,2048,2048
1442,4005,2048,2048
1443,4008,2048,2048
1444,4011,2048,2048
1445,4013,2048,2048
1446,4016,2048,2048
1447,4019,2048,2048
1448,4022,2048,2048
1449,4025,2048,2048
1450,4027,2048,2048
1451,4030,2048,2048
1452,4033,2048,2048
1453,4036,2048,2048
1454,4038,2048,2048
1455,4041,2048,2048
1456,4044,2048,2048
1457,4047,2048,2048
1458,4050,2048,2048
1459,4052,2048,2048
1460,4055,2048,2048
1461,4058,2048,2048
1462,4061,2048,2048
1463,4063,2048,2048
1464,4066,2048,2048
1465,4069,2048,2048
1466,4072,2048,2048
1467,4075,2048,2048
1468,4077,2048,2048
1469,4080,2048,2048
1470,4083,2048,2048
1471,4086,2048,2048
1472,4088,2048,2048
1473,4091,2048,2048
1474,4094,2048,2048
1475,4097,2048,2048
1476,4100,2048,2048
1477,4102,2048,2048
1478,4105,2048,2048
1479,4108,2048,2048
1480,4111,2048,2048
1481,4113,2048,2048
1482,4116,2048,2048
1483,4119,2048,2048
1484,4122,2048,2048
1485,4125,2048,2048
1486,4127,2048,2048
1487,4130,2048,2048
1488,4133,2048,2048
1489,4136,2048,2048
1490,4138,2048,2048
1491,4141,2048,2048
1492,4144,2048,2048
1493,4147,2048,2048
1494,4150,2048,2048
1495,4152,2048,2048
1496,4155,2048,2048
1497,4158,2048,2048
1498,4161,2048,2048
1499,4163,2048,2048
1500,4166,2048,2048
1501,4169,2048,2048
1502,4172,2048,2048
1503,4175,2048,2048
1504,4177,2048,2048
1505,4180,2048,2048
1506,4183,2048,2048
1507,4186,2048,2048
1508,4188,2048,2048
1509,4191,2048,2048
1510,4194,2049,2049
1511,4197,2049,2049
1512,4200,2050,2050
1513,4202,2051,2051
1514,4205,2052,2052
1515,4208,2054,2054
1516,4211,2057,2057
1517,4213,2060,2060
1518,4216,2064,2064
1519,4219,2069,2069
1520,4222,2074,2074
1521,4225,2080,2080
1522,4227,2086,2086
1523,4230,2091,2091
1524,4233,2096,2096
1525,4236,2100,2100
1526,4238,2102,2102
1527,4241,2103,2103
1528,4244,2102,2102
1529,4247,2100,2100
1530,4250,2096,2096
1531,4252,2091,2091
1532,4255,2086,2086
1533,4258,2080,2080
1534,4261,2074,2074
1535,4263,2069,2069
1536,4266,2064,2064
1537,4269,2060,2060
1538,4272,2057,2057
1539,4275,2054,2054
1540,4277,2052,2052
1541,4280,2051,2051
1542,4283,2050,2050
1543,4286,2049,2049
1544,4288,2049,2049
1545,4291,2048,2048
1546,4294,2048,2048
1547,4297,2048,2048
1548,4300,2048,2048
1549,4302,2048,2048
1550,4305,2048,2048
1551,4308,2048,2048
1552,4311,2048,2048
1553,4313,2048,2048
1554,4316,2048,2048
1555,4319,2048,2048
1556,4322,2048,2048
1557,4325,2048,2048
1558,4327,2048,2048
1559,4330,2048,2048
1560,4333,2048,2048
1561,4336,2048,2048
1562,4338,2048,2048
1563,4341,2051,2051
1564,4344,2052,2052
1565,4347,2055,2055
1566,4350,2058,2058
1567,4352,2063,2063
1568,4355,2069,2069
1569,4358,2078,2078
1570,4361,2089,2089
1571,4363,2103,2103
1572,4366,2120,2120
1573,4369,2141,2141
1574,4372,2165,2165
1575,4375,2192,2192
1576,4377,2221,2221
1577,4380,2252,2252
1578,4383,2284,2284
1579,4386,2314,2314
1580,4388,2342,2342
1581,4391,2365,2365
1582,4394,2383,2383
1583,4397,2394,2394
1584,4400,2398,2398
1585,4402,2394,2394
1586,4405,2383,2383
1587,4408,2365,2365
1588,4411,2342,2342
1589,4413,2314,2314
1590,4416,2284,2284
1591,4419,2252,2252
1592,4422,2221,2221
1593,4425,2192,2192
1594,4427,2165,2165
1595,4430,2141,2141
1596,4433,2120,2120
1597,4436,2103,2103
1598,4438,2089,2089
1599,4441,2078,2078
1600,4444,2069,2069
1601,4447,2063,2063
1602,4450,2058,2058
1603,4452,2055,2055
1604,4455,2052,2052
1605,4458,2048,2048
1606,4461,2048,2048
1607,4463,2048,2048
1608,4466,2048,2048
1609,4469,2048,2048
1610,4472,2048,2048
1611,4475,2048,2048
1612,4477,2048,2048
1613,4480,2048,2048
1614,4483,2048,2048
1615,4486,2048,2048
1616,4488,2048,2048
1617,4491,2048,2048
1618,4494,2048,2048
1619,4497,2048,2048
1620,4500,2048,2048
1621,4502,2048,2048
1622,4505,2048,2048
1623,4508,2048,2048
1624,4511,2048,2048
1625,4513,2048,2048
1626,4516,2048,2048
1627,4519,2048,2048
1628,4522,2048,2048
1629,4525,2048,2048
1630,4527,2048,2048
1631,4530,2048,2048
1632,4533,2048,2048
1633,4536,2048,2048
1634,4538,2048,2048
1635,4541,2049,2049
1636,4544,2049,2049
1637,4547,2049,2049
1638,4550,2050,2050
1639,4552,2051,2051
1640,4555,2051,2051
1641,4558,2053,2053
1642,4561,2054,2054
1643,4563,2056,2056
1644,4566,2058,2058
1645,4569,2060,2060
1646,4572,2063,2063
1647,4575,2067,2067
1648,4577,2070,2070
1649,4580,2075,2075
1650,4583,2080,2080
1651,4586,2085,2085
1652,4588,2091,2091
1653,4591,2097,2097
1654,4594,2103,2103
1655,4597,2109,2109
1656,4600,2115,2115
1657,4602,2120,2120
1658,4605,2125,2125
1659,4608,2130,2130
1660,4611,2133,2133
1661,4613,2136,2136
1662,4616,2137,2137
1663,4619,2138,2138
1664,4622,2137,2137
1665,4625,2136,2136
1666,4627,2133,2133
1667,4630,2130,2130
1668,4633,2125,2125
1669,4636,2120,2120
1670,4638,2115,2115
1671,4641,2109,2109
1672,4644,2103,2103
1673,4647,2097,2097
1674,4650,2091,2091
1675,4652,2085,2085
1676,4655,2080,2080
1677,4658,2075,2075
1678,4661,2070,2070
1679,4663,2067,2067
1680,4666,2063,2063
1681,4669,2060,2060
1682,4672,2058,2058
1683,4675,2056,2056
1684,4677,2054,2054
1685,4680,2053,2053
1686,4683,2051,2051
1687,4686,2051,2051
1688,4688,2050,2050
1689,4691,2049,2049
1690,4694,2049,2049
1691,4697,2048,2048
1692,4700,2048,2048
1693,4702,2048,2048
1694,4705,2048,2048
1695,4708,2048,2048
1696,4711,2048,2048
1697,4713,2048,2048
1698,4716,2048,2048
1699,4719,2048,2048
1700,4722,2048,2048
1701,4725,2048,2048
1702,4727,2048,2048
1703,4730,2048,2048
1704,4733,2048,2048
1705,4736,2048,2048
1706,4738,2048,2048
1707,4741,2048,2048
1708,4744,2048,2048
1709,4747,2048,2048
1710,4750,2048,2048
1711,4752,2048,2048
1712,4755,2048,2048
1713,4758,2048,2048
1714,4761,2048,2048
1715,4763,2048,2048
1716,4766,2048,2048
1717,4769,2048,2048
1718,4772,2048,2048
1719,4775,2048,2048
1720,4777,2048,2048
1721,4780,2048,2048
1722,4783,2048,2048
1723,4786,2048,2048
1724,4788,2048,2048
1725,4791,2048,2048
1726,4794,2048,2048
1727,4797,2048,2048
1728,4800,2048,2048
1729,4802,2048,2048
1730,4805,2048,2048
1731,4808,2048,2048
1732,4811,2048,2048
1733,4813,2048,2048
1734,4816,2048,2048
1735,4819,2048,2048
1736,4822,2048,2048
1737,4825,2048,2048
1738,4827,2048,2048
1739,4830,2048,2048
1740,4833,2048,2048
1741,4836,2048,2048
1742,4838,2048,2048
1743,4841,2048,2048
1744,4844,2048,2048
1745,4847,2048,2048
1746,4850,2048,2048
1747,4852,2048,2048
1748,4855,2048,2048
1749,4858,2048,2048
1750,4861,2048,2048
1751,4863,2048,2048
1752,4866,2048,2048
1753,4869,2048,2048
1754,4872,2048,2048
1755,4875,2048,2048
1756,4877,2048,2048
1757,4880,2048,2048
1758,4883,2048,2048
1759,4886,2048,2048
1760,4888,2048,2048
1761,4891,2048,2048
1762,4894,2048,2048
1763,4897,2048,2048
1764,4900,2048,2048
1765,4902,2049,2049
1766,4905,2049,2049
1767,4908,2050,2050
1768,4911,2051,2051
1769,4913,2052,2052
1770,4916,2054,2054
1771,4919,2057,2057
1772,4922,2060,2060
1773,4925,2064,2064
1774,4927,2069,2069
1775,4930,2074,2074
1776,4933,2080,2080
1777,4936,2086,2086
1778,4938,2091,2091
1779,4941,2096,2096
1780,4944,2100,2100
1781,4947,2102,2102
1782,4950,2103,2103
1783,4952,2102,2102
1784,4955,2100,2100
1785,4958,2096,2096
1786,4961,2091,2091
1787,4963,2086,2086
1788,4966,2080,2080
1789,4969,2074,2074
1790,4972,2069,2069
1791,4975,2064,2064
1792,4977,2060,2060
1793,4980,2057,2057
1794,4983,2054,2054
1795,4986,2052,2052
1796,4988,2051,2051
1797,4991,2050,2050
1798,4994,2049,2049
1799,4997,2049,2049
1800,5000,2048,2048
1801,5002,2048,2048
1802,5005,2048,2048
1803,5008,2048,2048
1804,5011,2048,2048
1805,5013,2048,2048
1806,5016,2048,2048
1807,5019,2051,2051
1808,5022,2052,2052
1809,5025,2055,2055
1810,5027,2058,2058
1811,5030,2063,2063
1812,5033,2069,2069
1813,5036,2078,2078
1814,5038,2089,2089
1815,5041,2103,2103
1816,5044,2120,2120
1817,5047,2141,2141
1818,5050,2165,2165
1819,5052,2192,2192
1820,5055,2221,2221
1821,5058,2252,2252
1822,5061,2284,2284
1823,5063,2314,2314
1824,5066,2342,2342
1825,5069,2365,2365
1826,5072,2383,2383
1827,5075,2394,2394
1828,5077,2398,2398
1829,5080,2394,2394
1830,5083,2383,2383
1831,5086,2365,2365
1832,5088,2342,2342
1833,5091,2314,2314
1834,5094,2284,2284
1835,5097,2252,2252
1836,5100,2221,2221
1837,5102,2192,2192
1838,5105,2165,2165
1839,5108,2141,2141
1840,5111,2120,2120
1841,5113,2103,2103
1842,5116,2089,2089
1843,5119,2078,2078
1844,5122,2069,2069
1845,5125,2063,2063
1846,5127,2058,2058
1847,5130,2055,2055
1848,5133,2052,2052
1849,5136,2048,2048
1850,5138,2048,2048
1851,5141,2048,2048
1852,5144,2048,2048
1853,5147,2048,2048
1854,5150,2048,2048
1855,5152,2048,2048
1856,5155,2048,2048
1857,5158,2048,2048
1858,5161,2048,2048
1859,5163,2048,2048
1860,5166,2048,2048
1861,5169,2048,2048
1862,5172,2048,2048
1863,5175,2048,2048
1864,5177,2048,2048
1865,5180,2048,2048
1866,5183,2048,2048
1867,5186,2048,2048
1868,5188,2048,2048
1869,5191,2048,2048
1870,5194,2048,2048
1871,5197,2048,2048
1872,5200,2048,2048
1873,5202,2048,2048
1874,5205,2048,2048
1875,5208,2048,2048
1876,5211,2048,2048
1877,5213,2048,2048
1878,5216,2048,2048
1879,5219,2049,2049
1880,5222,2049,2049
1881,5225,2049,2049
1882,5227,2048,2048
1883,5230,2048,2048
1884,5233,2048,2048
1885,5236,2048,2048
1886,5238,2048,2048
1887,5241,2048,2048
1888,5244,2048,2048
1889,5247,2048,2048
1890,5250,2048,2048
1891,5252,2048,2048
1892,5255,2048,2048
1893,5258,2048,2048
1894,5261,2048,2048
1895,5263,2048,2048
1896,5266,2048,2048
1897,5269,2048,2048
1898,5272,2048,2048
1899,5275,2048,2048
1900,5277,2048,2048
1901,5280,2048,2048
1902,5283,2048,2048
1903,5286,2048,2048
1904,5288,2048,2048
1905,5291,2048,2048
1906,5294,2048,2048
1907,5297,2048,2048
1908,5300,2048,2048
1909,5302,2048,2048
1910,5305,2048,2048
1911,5308,2048,2048
1912,5311,2048,2048
1913,5313,2048,2048
1914,5316,2048,2048
1915,5319,2048,2048
1916,5322,2048,2048
1917,5325,2048,2048
1918,5327,2048,2048
1919,5330,2049,2049
1920,5333,2049,2049
1921,5336,2050,2050
1922,5338,2051,2051
1923,5341,2052,2052
1924,5344,2054,2054
1925,5347,2057,2057
1926,5350,2060,2060
1927,5352,2064,2064
1928,5355,2069,2069
1929,5358,2074,2074
1930,5361,2080,2080
1931,5363,2086,2086
1932,5366,2091,2091
1933,5369,2096,2096
1934,5372,2100,2100
1935,5375,2102,2102
1936,5377,2103,2103
1937,5380,2102,2102
1938,5383,2100,2100
1939,5386,2096,2096
1940,5388,2091,2091
1941,5391,2086,2086
1942,5394,2080,2080
1943,5397,2074,2074
1944,5400,2069,2069
1945,5402,2064,2064
1946,5405,2060,2060
1947,5408,2057,2057
1948,5411,2054,2054
1949,5413,2052,2052
1950,5416,2051,2051
1951,5419,2050,2050
1952,5422,2049,2049
1953,5425,2049,2049
1954,5427,2048,2048
1955,5430,2048,2048
1956,5433,2048,2048
1957,5436,2048,2048
1958,5438,2048,2048
1959,5441,2048,2048
1960,5444,2048,2048
1961,5447,2051,2051
1962,5450,2052,2052
1963,5452,2055,2055
1964,5455,2058,2058
1965,5458,2063,2063
1966,5461,2069,2069
1967,5463,2078,2078
1968,5466,2089,2089
1969,5469,2103,2103
1970,5472,2120,2120
1971,5475,2141,2141
1972,5477,2165,2165
1973,5480,2192,2192
1974,5483,2221,2221
1975,5486,2252,2252
1976,5488,2284,2284
1977,5491,2314,2314
1978,5494,2342,2342
1979,5497,2365,2365
1980,5500,2383,2383
1981,5502,2394,2394
1982,5505,2398,2398
1983,5508,2394,2394
1984,5511,2383,2383
1985,5513,2365,2365
1986,5516,2342,2342
1987,5519,2314,2314
1988,5522,2284,2284
1989,5525,2252,2252
1990,5527,2221,2221
1991,5530,2192,2192
1992,5533,2165,2165
1993,5536,2141,2141
1994,5538,2120,2120
1995,5541,2103,2103
1996,5544,2089,2089
1997,5547,2078,2078
1998,5550,2069,2069
1999,5552,2063,2063
2000,5555,2058,2058
2001,5558,2055,2055
2002,5561,2052,2052
2003,5563,2048,2048
2004,5566,2048,2048
2005,5569,2048,2048
2006,5572,2048,2048
2007,5575,2048,2048
2008,5577,2048,2048
2009,5580,2048,2048
2010,5583,2048,2048
2011,5586,2048,2048
2012,5588,2048,2048
2013,5591,2048,2048
2014,5594,2048,2048
2015,5597,2048,2048
2016,5600,2048,2048
2017,5602,2048,2048
2018,5605,2048,2048
2019,5608,2048,2048
2020,5611,2048,2048
2021,5613,2048,2048
2022,5616,2048,2048
2023,5619,2048,2048
2024,5622,2048,2048
2025,5625,2048,2048
2026,5627,2048,2048
2027,5630,2048,2048
2028,5633,2048,2048
2029,5636,2048,2048
2030,5638,2048,2048
2031,5641,2048,2048
2032,5644,2048,2048
2033,5647,2049,2049
2034,5650,2049,2049
2035,5652,2049,2049
2036,5655,2048,2048
2037,5658,2048,2048
2038,5661,2048,2048
2039,5663,2048,2048
2040,5666,2048,2048
2041,5669,2048,2048
2042,5672,2048,2048
2043,5675,2048,2048
2044,5677,2048,2048
2045,5680,2048,2048
2046,5683,2048,2048
2047,5686,2048,2048
2048,5688,2048,2048
2049,5691,2048,2048
2050,5694,2048,2048
2051,5697,2048,2048
2052,5700,2048,2048
2053,5702,2048,2048
2054,5705,2048,2048
2055,5708,2048,2048
2056,5711,2048,2048
2057,5713,2048,2048
2058,5716,2048,2048
2059,5719,2048,2048
2060,5722,2048,2048
2061,5725,2048,2048
2062,5727,2048,2048
2063,5730,2048,2048
2064,5733,2048,2048
2065,5736,2048,2048
2066,5738,2048,2048
2067,5741,2048,2048
2068,5744,2048,2048
2069,5747,2048,2048
2070,5750,2048,2048
2071,5752,2048,2048
2072,5755,2048,2048
2073,5758,2049,2049
2074,5761,2049,2049
2075,5763,2050,2050
2076,5766,2051,2051
2077,5769,2052,2052
2078,5772,2054,2054
2079,5775,2057,2057
2080,5777,2060,2060
2081,5780,2064,2064
2082,5783,2069,2069
2083,5786,2074,2074
2084,5788,2080,2080
2085,5791,2086,2086
2086,5794,2091,2091
2087,5797,2096,2096
2088,5800,2100,2100
2089,5802,2102,2102
2090,5805,2103,2103
2091,5808,2102,2102
2092,5811,2100,2100
2093,5813,2096,2096
2094,5816,2091,2091
2095,5819,2086,2086
2096,5822,2080,2080
2097,5825,2074,2074
2098,5827,2069,2069
2099,5830,2064,2064
2100,5833,2060,2060
2101,5836,2057,2057
2102,5838,2054,2054
2103,5841,2052,2052
2104,5844,2051,2051
2105,5847,2050,2050
2106,5850,2049,2049
2107,5852,2049,2049
2108,5855,2048,2048
2109,5858,2048,2048
2110,5861,2048,2048
2111,5863,2048,2048
2112,5866,2048,2048
2113,5869,2048,2048
2114,5872,2048,2048
2115,5875,2051,2051
2116,5877,2052,2052
2117,5880,2055,2055
2118,5883,2058,2058
2119,5886,2063,2063
2120,5888,2069,2069
2121,5891,2078,2078
2122,5894,2089,2089
2123,5897,2103,2103
2124,5900,2120,2120
2125,5902,2141,2141
2126,5905,2165,2165
2127,5908,2192,2192
2128,5911,2221,2221
2129,5913,2252,2252
2130,5916,2284,2284
2131,5919,2314,2314
2132,5922,2342,2342
2133,5925,2365,2365
2134,5927,2383,2383
2135,5930,2394,2394
2136,5933,2398,2398
2137,5936,2394,2394
2138,5938,2383,2383
2139,5941,2365,2365
2140,5944,2342,2342
2141,5947,2314,2314
2142,5950,2284,2284
2143,5952,2252,2252
2144,5955,2221,2221
2145,5958,2192,2192
2146,5961,2165,2165
2147,5963,2141,2141
2148,5966,2120,2120
2149,5969,2103,2103
2150,5972,2089,2089
2151,5975,2078,2078
2152,5977,2069,2069
2153,5980,2063,2063
2154,5983,2058,2058
2155,5986,2055,2055
2156,5988,2052,2052
2157,5991,2048,2048
2158,5994,2048,2048
2159,5997,2048,2048
2160,6000,2048,2048
2161,6002,2048,2048
2162,6005,2048,2048
2163,6008,2048,2048
2164,6011,2048,2048
2165,6013,2048,2048
2166,6016,2048,2048
2167,6019,2048,2048
2168,6022,2048,2048
2169,6025,2048,2048
2170,6027,2048,2048
2171,6030,2048,2048
2172,6033,2048,2048
2173,6036,2048,2048
2174,6038,2048,2048
2175,6041,2048,2048
2176,6044,2048,2048
2177,6047,2048,2048
2178,6050,2048,2048
2179,6052,2048,2048
2180,6055,2048,2048
2181,6058,2048,2048
2182,6061,2048,2048
2183,6063,2048,2048
2184,6066,2048,2048
2185,6069,2048,2048
2186,6072,2048,2048
2187,6075,2049,2049
2188,6077,2049,2049
2189,6080,2049,2049
2190,6083,2048,2048
2191,6086,2048,2048
2192,6088,2048,2048
2193,6091,2048,2048
2194,6094,2048,2048
2195,6097,2048,2048
2196,6100,2048,2048
2197,6102,2048,2048
2198,6105,2048,2048
2199,6108,2048,2048
2200,6111,2048,2048
2201,6113,2048,2048
2202,6116,2048,2048
2203,6119,2048,2048
2204,6122,2048,2048
2205,6125,2048,2048
2206,6127,2048,2048
2207,6130,2048,2048
2208,6133,2048,2048
2209,6136,2048,2048
2210,6138,2048,2048
2211,6141,2048,2048
2212,6144,2048,2048
2213,6147,2048,2048
2214,6150,2048,2048
2215,6152,2048,2048
2216,6155,2048,2048
2217,6158,2048,2048
2218,6161,2048,2048
2219,6163,2048,2048
2220,6166,2048,2048
2221,6169,2048,2048
2222,6172,2048,2048
2223,6175,2048,2048
2224,6177,2048,2048
2225,6180,2048,2048
2226,6183,2048,2048
2227,6186,2049,2049
2228,6188,2049,2049
2229,6191,2050,2050
2230,6194,2051,2051
2231,6197,2052,2052
2232,6200,2054,2054
2233,6202,2057,2057
2234,6205,2060,2060
2235,6208,2064,2064
2236,6211,2069,2069
2237,6213,2074,2074
2238,6216,2080,2080
2239,6219,2086,2086
2240,6222,2091,2091
2241,6225,2096,2096
2242,6227,2100,2100
2243,6230,2102,2102
2244,6233,2103,2103
2245,6236,2102,2102
2246,6238,2100,2100
2247,6241,2096,2096
2248,6244,2091,2091
2249,6247,2086,2086
2250,6250,2080,2080
2251,6252,2074,2074
2252,6255,2069,2069
2253,6258,2064,2064
2254,6261,2060,2060
2255,6263,2057,2057
2256,6266,2054,2054
2257,6269,2052,2052
2258,6272,2051,2051
2259,6275,2050,2050
2260,6277,2049,2049
2261,6280,2049,2049
2262,6283,2048,2048
2263,6286,2048,2048
2264,6288,2048,2048
2265,6291,2048,2048
2266,6294,2048,2048
2267,6297,2048,2048
2268,6300,2048,2048
2269,6302,2051,2051
2270,6305,2052,2052
2271,6308,2055,2055
2272,6311,2058,2058
2273,6313,2063,2063
2274,6316,2069,2069
2275,6319,2078,2078
2276,6322,2089,2089
2277,6325,2103,2103
2278,6327,2120,2120
2279,6330,2141,2141
2280,6333,2165,2165
2281,6336,2192,2192
2282,6338,2221,2221
2283,6341,2252,2252
2284,6344,2284,2284
2285,6347,2314,2314
2286,6350,2342,2342
2287,6352,2365,2365
2288,6355,2383,2383
2289,6358,2394,2394
2290,6361,2398,2398
2291,6363,2394,2394
2292,6366,2383,2383
2293,6369,2365,2365
2294,6372,2342,2342
2295,6375,2314,2314
2296,6377,2284,2284
2297,6380,2252,2252
2298,6383,2221,2221
2299,6386,2192,2192
2300,6388,2165,2165
2301,6391,2141,2141
2302,6394,2120,2120
2303,6397,2103,2103
2304,6400,2089,2089
2305,6402,2078,2078
2306,6405,2069,2069
2307,6408,2063,2063
2308,6411,2058,2058
2309,6413,2055,2055
2310,6416,2052,2052
2311,6419,2048,2048
2312,6422,2048,2048
2313,6425,2048,2048
2314,6427,2048,2048
2315,6430,2048,2048
2316,6433,2048,2048
2317,6436,2048,2048
2318,6438,2048,2048
2319,6441,2048,2048
2320,6444,2048,2048
2321,6447,2048,2048
2322,6450,2048,2048
2323,6452,2048,2048
2324,6455,2048,2048
2325,6458,2048,2048
2326,6461,2048,2048
2327,6463,2048,2048
2328,6466,2048,2048
2329,6469,2048,2048
2330,6472,2048,2048
2331,6475,2048,2048
2332,6477,2048,2048
2333,6480,2048,2048
2334,6483,2048,2048
2335,6486,2048,2048
2336,6488,2048,2048
2337,6491,2048,2048
2338,6494,2048,2048
2339,6497,2048,2048
2340,6500,2048,2048
2341,6502,2049,2049
2342,6505,2049,2049
2343,6508,2049,2049
2344,6511,2048,2048
2345,6513,2048,2048
2346,6516,2048,2048
2347,6519,2048,2048
2348,6522,2048,2048
2349,6525,2048,2048
2350,6527,2048,2048
2351,6530,2048,2048
2352,6533,2048,2048
2353,6536,2048,2048
2354,6538,2048,2048
2355,6541,2048,2048
2356,6544,2048,2048
2357,6547,2048,2048
2358,6550,2048,2048
2359,6552,2048,2048
2360,6555,2048,2048
2361,6558,2048,2048
2362,6561,2048,2048
2363,6563,2048,2048
2364,6566,2048,2048
2365,6569,2048,2048
2366,6572,2048,2048
2367,6575,2048,2048
2368,6577,2048,2048
2369,6580,2048,2048
2370,6583,2048,2048
2371,6586,2048,2048
2372,6588,2048,2048
2373,6591,2048,2048
2374,6594,2048,2048
2375,6597,2048,2048
2376,6600,2048,2048
2377,6602,2048,2048
2378,6605,2048,2048
2379,6608,2048,2048
2380,6611,2048,2048
2381,6613,2049,2049
2382,6616,2049,2049
2383,6619,2050,2050
2384,6622,2051,2051
2385,6625,2052,2052
2386,6627,2054,2054
2387,6630,2057,2057
2388,6633,2060,2060
2389,6636,2064,2064
2390,6638,2069,2069
2391,6641,2074,2074
2392,6644,2080,2080
2393,6647,2086,2086
2394,6650,2091,2091
2395,6652,2096,2096
2396,6655,2100,2100
2397,6658,2102,2102
2398,6661,2103,2103
2399,6663,2102,2102
2400,6666,2100,2100
2401,6669,2096,2096
2402,6672,2091,2091
2403,6675,2086,2086
2404,6677,2080,2080
2405,6680,2074,2074
2406,6683,2069,2069
2407,6686,2064,2064
2408,6688,2060,2060
2409,6691,2057,2057
2410,6694,2054,2054
2411,6697,2052,2052
2412,6700,2051,2051
2413,6702,2050,2050
2414,6705,2049,2049
2415,6708,2049,2049
2416,6711,2048,2048
2417,6713,2048,2048
2418,6716,2048,2048
2419,6719,2048,2048
2420,6722,2048,2048
2421,6725,2048,2048
2422,6727,2048,2048
2423,6730,2051,2051
2424,6733,2052,2052
2425,6736,2055,2055
2426,6738,2058,2058
2427,6741,2063,2063
2428,6744,2069,2069
2429,6747,2078,2078
2430,6750,2089,2089
2431,6752,2103,2103
2432,6755,2120,2120
2433,6758,2141,2141
2434,6761,2165,2165
2435,6763,2192,2192
2436,6766,2221,2221
2437,6769,2252,2252
2438,6772,2284,2284
2439,6775,2314,2314
2440,6777,2342,2342
2441,6780,2365,2365
2442,6783,2383,2383
2443,6786,2394,2394
2444,6788,2398,2398
2445,6791,2394,2394
2446,6794,2383,2383
2447,6797,2365,2365
2448,6800,2342,2342
2449,6802,2314,2314
2450,6805,2284,2284
2451,6808,2252,2252
2452,6811,2221,2221
2453,6813,2192,2192
2454,6816,2165,2165
2455,6819,2141,2141
2456,6822,2120,2120
2457,6825,2103,2103
2458,6827,2089,2089
2459,6830,2078,2078
2460,6833,2069,2069
2461,6836,2063,2063
2462,6838,2058,2058
2463,6841,2055,2055
2464,6844,2052,2052
2465,6847,2048,2048
2466,6850,2048,2048
2467,6852,2048,2048
2468,6855,2048,2048
2469,6858,2048,2048
2470,6861,2048,2048
2471,6863,2048,2048
2472,6866,2048,2048
2473,6869,2048,2048
2474,6872,2048,2048
2475,6875,2048,2048
2476,6877,2048,2048
2477,6880,2048,2048
2478,6883,2048,2048
2479,6886,2048,2048
2480,6888,2048,2048
2481,6891,2048,2048
2482,6894,2048,2048
2483,6897,2048,2048
2484,6900,2048,2048
2485,6902,2048,2048
2486,6905,2048,2048
2487,6908,2048,2048
2488,6911,2048,2048
2489,6913,2048,2048
2490,6916,2048,2048
2491,6919,2048,2048
2492,6922,2048,2048
2493,6925,2048,2048
2494,6927,2048,2048
2495,6930,2049,2049
2496,6933,2049,2049
2497,6936,2049,2049
2498,6938,2048,2048
2499,6941,2048,2048
2500,6944,2048,2048
2501,6947,2048,2048
2502,6950,2048,2048
2503,6952,2048,2048
2504,6955,2048,2048
2505,6958,2048,2048
2506,6961,2048,2048
2507,6963,2048,2048
2508,6966,2048,2048
2509,6969,2048,2048
2510,6972,2048,2048
2511,6975,2048,2048
2512,6977,2048,2048
2513,6980,2048,2048
2514,6983,2048,2048
2515,6986,2048,2048
2516,6988,2048,2048
2517,6991,2048,2048
2518,6994,2048,2048
2519,6997,2048,2048
2520,7000,2048,2048
2521,7002,2048,2048
2522,7005,2048,2048
2523,7008,2048,2048
2524,7011,2048,2048
2525,7013,2048,2048
2526,7016,2048,2048
2527,7019,2048,2048
2528,7022,2048,2048
2529,7025,2048,2048
2530,7027,2048,2048
2531,7030,2048,2048
2532,7033,2048,2048
2533,7036,2048,2048
2534,7038,2048,2048
2535,7041,2049,2049
2536,7044,2049,2049
2537,7047,2050,2050
2538,7050,2051,2051
2539,7052,2052,2052
2540,7055,2054,2054
2541,7058,2057,2057
2542,7061,2060,2060
2543,7063,2064,2064
2544,7066,2069,2069
2545,7069,2074,2074
2546,7072,2080,2080
2547,7075,2086,2086
2548,7077,2091,2091
2549,7080,2096,2096
2550,7083,2100,2100
2551,7086,2102,2102
2552,7088,2103,2103
2553,7091,2102,2102
2554,7094,2100,2100
2555,7097,2096,2096
2556,7100,2091,2091
2557,7102,2086,2086
2558,7105,2080,2080
2559,7108,2074,2074
2560,7111,2069,2069
2561,7113,2064,2064
2562,7116,2060,2060
2563,7119,2057,2057
2564,7122,2054,2054
2565,7125,2052,2052
2566,7127,2051,2051
2567,7130,2050,2050
2568,7133,2049,2049
2569,7136,2049,2049
2570,7138,2048,2048
2571,7141,2048,2048
2572,7144,2048,2048
2573,7147,2048,2048
2574,7150,2048,2048
2575,7152,2048,2048
2576,7155,2048,2048
2577,7158,2051,2051
2578,7161,2052,2052
2579,7163,2055,2055
2580,7166,2058,2058
2581,7169,2063,2063
2582,7172,2069,2069
2583,7175,2078,2078
2584,7177,2089,2089
2585,7180,2103,2103
2586,7183,2120,2120
2587,7186,2141,2141
2588,7188,2165,2165
2589,7191,2192,2192
2590,7194,2221,2221
2591,7197,2252,2252
2592,7200,2284,2284
2593,7202,2314,2314
2594,7205,2342,2342
2595,7208,2365,2365
2596,7211,2383,2383
2597,7213,2394,2394
2598,7216,2398,2398
2599,7219,2394,2394
2600,7222,2383,2383
2601,7225,2365,2365
2602,7227,2342,2342
2603,7230,2314,2314
2604,7233,2284,2284
2605,7236,2252,2252
2606,7238,2221,2221
2607,7241,2192,2192
2608,7244,2165,2165
2609,7247,2141,2141
2610,7250,2120,2120
2611,7252,2103,2103
2612,7255,2089,2089
2613,7258,2078,2078
2614,7261,2069,2069
2615,7263,2063,2063
2616,7266,2058,2058
2617,7269,2055,2055
2618,7272,2052,2052
2619,7275,2048,2048
2620,7277,2048,2048
2621,7280,2048,2048
2622,7283,2048,2048
2623,7286,2048,2048
2624,7288,2048,2048
2625,7291,2048,2048
2626,7294,2048,2048
2627,7297,2048,2048
2628,7300,2048,2048
2629,7302,2048,2048
2630,7305,2048,2048
2631,7308,2048,2048
2632,7311,2048,2048
2633,7313,2048,2048
2634,7316,2048,2048
2635,7319,2048,2048
2636,7322,2048,2048
2637,7325,2048,2048
2638,7327,2048,2048
2639,7330,2048,2048
2640,7333,2048,2048
2641,7336,2048,2048
2642,7338,2048,2048
2643,7341,2048,2048
2644,7344,2048,2048
2645,7347,2048,2048
2646,7350,2048,2048
2647,7352,2048,2048
2648,7355,2048,2048
2649,7358,2049,2049
2650,7361,2049,2049
2651,7363,2049,2049
2652,7366,2048,2048
2653,7369,2048,2048
2654,7372,2048,2048
2655,7375,2048,2048
2656,7377,2048,2048
2657,7380,2048,2048
2658,7383,2048,2048
2659,7386,2048,2048
2660,7388,2048,2048
2661,7391,2048,2048
2662,7394,2048,2048
2663,7397,2048,2048
2664,7400,2048,2048
2665,7402,2048,2048
2666,7405,2048,2048
2667,7408,2048,2048
2668,7411,2048,2048
2669,7413,2048,2048
2670,7416,2048,2048
2671,7419,2048,2048
2672,7422,2048,2048
2673,7425,2048,2048
2674,7427,2048,2048
2675,7430,2048,2048
2676,7433,2048,2048
2677,7436,2048,2048
2678,7438,2048,2048
2679,7441,2048,2048
2680,7444,2048,2048
2681,7447,2048,2048
2682,7450,2048,2048
2683,7452,2048,2048
2684,7455,2048,2048
2685,7458,2048,2048
2686,7461,2048,2048
2687,7463,2048,2048
2688,7466,2048,2048
2689,7469,2049,2049
2690,7472,2049,2049
2691,7475,2050,2050
2692,7477,2051,2051
2693,7480,2052,2052
2694,7483,2054,2054
2695,7486,2057,2057
2696,7488,2060,2060
2697,7491,2064,2064
2698,7494,2069,2069
2699,7497,2074,2074
2700,7500,2080,2080
2701,7502,2086,2086
2702,7505,2091,2091
2703,7508,2096,2096
2704,7511,2100,2100
2705,7513,2102,2102
2706,7516,2103,2103
2707,7519,2102,2102
2708,7522,2100,2100
2709,7525,2096,2096
2710,7527,2091,2091
2711,7530,2086,2086
2712,7533,2080,2080
2713,7536,2074,2074
2714,7538,2069,2069
2715,7541,2064,2064
2716,7544,2060,2060
2717,7547,2057,2057
2718,7550,2054,2054
2719,7552,2052,2052
2720,7555,2051,2051
2721,7558,2050,2050
2722,7561,2049,2049
2723,7563,2049,2049
2724,7566,2048,2048
2725,7569,2048,2048
2726,7572,2048,2048
2727,7575,2048,2048
2728,7577,2048,2048
2729,7580,2048,2048
2730,7583,2048,2048
2731,7586,2051,2051
2732,7588,2052,2052
2733,7591,2055,2055
2734,7594,2058,2058
2735,7597,2063,2063
2736,7600,2069,2069
2737,7602,2078,2078
2738,7605,2089,2089
2739,7608,2103,2103
2740,7611,2120,2120
2741,7613,2141,2141
2742,7616,2165,2165
2743,7619,2192,2192
2744,7622,2221,2221
2745,7625,2252,2252
2746,7627,2284,2284
2747,7630,2314,2314
2748,7633,2342,2342
2749,7636,2365,2365
2750,7638,2383,2383
2751,7641,2394,2394
2752,7644,2398,2398
2753,7647,2394,2394
2754,7650,2383,2383
2755,7652,2365,2365
2756,7655,2342,2342
2757,7658,2314,2314
2758,7661,2284,2284
2759,7663,2252,2252
2760,7666,2221,2221
2761,7669,2192,2192
2762,7672,2165,2165
2763,7675,2141,2141
2764,7677,2120,2120
2765,7680,2103,2103
2766,7683,2089,2089
2767,7686,2078,2078
2768,7688,2069,2069
2769,7691,2063,2063
2770,7694,2058,2058
2771,7697,2055,2055
2772,7700,2052,2052
2773,7702,2048,2048
2774,7705,2048,2048
2775,7708,2048,2048
2776,7711,2048,2048
2777,7713,2048,2048
2778,7716,2048,2048
2779,7719,2048,2048
2780,7722,2048,2048
2781,7725,2048,2048
2782,7727,2048,2048
2783,7730,2048,2048
2784,7733,2048,2048
2785,7736,2048,2048
2786,7738,2048,2048
2787,7741,2048,2048
2788,7744,2048,2048
2789,7747,2048,2048
2790,7750,2048,2048
2791,7752,2048,2048
2792,7755,2048,2048
2793,7758,2048,2048
2794,7761,2048,2048
2795,7763,2048,2048
2796,7766,2048,2048
2797,7769,2048,2048
2798,7772,2048,2048
2799,7775,2048,2048
2800,7777,2048,2048
2801,7780,2048,2048
2802,7783,2048,2048
2803,7786,2049,2049
2804,7788,2049,2049
2805,7791,2049,2049
2806,7794,2048,2048
2807,7797,2048,2048
2808,7800,2048,2048
2809,7802,2048,2048
2810,7805,2048,2048
2811,7808,2048,2048
2812,7811,2048,2048
2813,7813,2048,2048
2814,7816,2048,2048
2815,7819,2048,2048
2816,7822,2048,2048
2817,7825,2048,2048
2818,7827,2048,2048
2819,7830,2048,2048
2820,7833,2048,2048
2821,7836,2048,2048
2822,7838,2048,2048
2823,7841,2048,2048
2824,7844,2048,2048
2825,7847,2048,2048
2826,7850,2048,2048
2827,7852,2048,2048
2828,7855,2048,2048
2829,7858,2048,2048
2830,7861,2048,2048
2831,7863,2048,2048
2832,7866,2048,2048
2833,7869,2048,2048
2834,7872,2048,2048
2835,7875,2048,2048
2836,7877,2048,2048
2837,7880,2048,2048
2838,7883,2048,2048
2839,7886,2048,2048
2840,7888,2048,2048
2841,7891,2048,2048
2842,7894,2048,2048
2843,7897,2049,2049
2844,7900,2049,2049
2845,7902,2050,2050
2846,7905,2051,2051
2847,7908,2052,2052
2848,7911,2054,2054
2849,7913,2057,2057
2850,7916,2060,2060
2851,7919,2064,2064
2852,7922,2069,2069
2853,7925,2074,2074
2854,7927,2080,2080
2855,7930,2086,2086
2856,7933,2091,2091
2857,7936,2096,2096
2858,7938,2100,2100
2859,7941,2102,2102
2860,7944,2103,2103
2861,7947,2102,2102
2862,7950,2100,2100
2863,7952,2096,2096
2864,7955,2091,2091
2865,7958,2086,2086
2866,7961,2080,2080
2867,7963,2074,2074
2868,7966,2069,2069
2869,7969,2064,2064
2870,7972,2060,2060
2871,7975,2057,2057
2872,7977,2054,2054
2873,7980,2052,2052
2874,7983,2051,2051
2875,7986,2050,2050
2876,7988,2049,2049
2877,7991,2049,2049
2878,7994,2048,2048
2879,7997,2048,2048
2880,8000,2048,2048
2881,8002,2048,2048
2882,8005,2048,2048
2883,8008,2048,2048
2884,8011,2048,2048
2885,8013,2051,2051
2886,8016,2052,2052
2887,8019,2055,2055
2888,8022,2058,2058
2889,8025,2063,2063
2890,8027,2069,2069
2891,8030,2078,2078
2892,8033,2089,2089
2893,8036,2103,2103
2894,8038,2120,2120
2895,8041,2141,2141
2896,8044,2165,2165
2897,8047,2192,2192
2898,8050,2221,2221
2899,8052,2252,2252
2900,8055,2284,2284
2901,8058,2314,2314
2902,8061,2342,2342
2903,8063,2365,2365
2904,8066,2383,2383
2905,8069,2394,2394
2906,8072,2398,2398
2907,8075,2394,2394
2908,8077,2383,2383
2909,8080,2365,2365
2910,8083,2342,2342
2911,8086,2314,2314
2912,8088,2284,2284
2913,8091,2252,2252
2914,8094,2221,2221
2915,8097,2192,2192
2916,8100,2165,2165
2917,8102,2141,2141
2918,8105,2120,2120
2919,8108,2103,2103
2920,8111,2089,2089
2921,8113,2078,2078
2922,8116,2069,2069
2923,8119,2063,2063
2924,8122,2058,2058
2925,8125,2055,2055
2926,8127,2052,2052
2927,8130,2048,2048
2928,8133,2048,2048
2929,8136,2048,2048
2930,8138,2048,2048
2931,8141,2048,2048
2932,8144,2048,2048
2933,8147,2048,2048
2934,8150,2048,2048
2935,8152,2048,2048
2936,8155,2048,2048
2937,8158,2048,2048
2938,8161,2048,2048
2939,8163,2048,2048
2940,8166,2048,2048
2941,8169,2048,2048
2942,8172,2048,2048
2943,8175,2048,2048
2944,8177,2048,2048
2945,8180,2048,2048
2946,8183,2048,2048
2947,8186,2048,2048
2948,8188,2048,2048
2949,8191,2048,2048
2950,8194,2048,2048
2951,8197,2048,2048
2952,8200,2048,2048
2953,8202,2048,2048
2954,8205,2048,2048
2955,8208,2048,2048
2956,8211,2048,2048
2957,8213,2049,2049
2958,8216,2049,2049
2959,8219,2049,2049
2960,8222,2048,2048
2961,8225,2048,2048
2962,8227,2048,2048
2963,8230,2048,2048
2964,8233,2048,2048
2965,8236,2048,2048
2966,8238,2048,2048
2967,8241,2048,2048
2968,8244,2048,2048
2969,8247,2048,2048
2970,8250,2048,2048
2971,8252,2048,2048
2972,8255,2048,2048
2973,8258,2048,2048
2974,8261,2048,2048
2975,8263,2048,2048
2976,8266,2048,2048
2977,8269,2048,2048
2978,8272,2048,2048
2979,8275,2048,2048
2980,8277,2048,2048
2981,8280,2048,2048
2982,8283,2048,2048
2983,8286,2048,2048
2984,8288,2048,2048
2985,8291,2048,2048
2986,8294,2048,2048
2987,8297,2048,2048
2988,8300,2048,2048
2989,8302,2048,2048
2990,8305,2048,2048
2991,8308,2048,2048
2992,8311,2048,2048
2993,8313,2048,2048
2994,8316,2048,2048
2995,8319,2048,2048
2996,8322,2048,2048
2997,8325,2049,2049
2998,8327,2049,2049
2999,8330,2050,2050
3000,8333,2051,2051
3001,8336,2052,2052
3002,8338,2054,2054
3003,8341,2057,2057
3004,8344,2060,2060
3005,8347,2064,2064
3006,8350,2069,2069
3007,8352,2074,2074
3008,8355,2080,2080
3009,8358,2086,2086
3010,8361,2091,2091
3011,8363,2096,2096
3012,8366,2100,2100
3013,8369,2102,2102
3014,8372,2103,2103
3015,8375,2102,2102
3016,8377,2100,2100
3017,8380,2096,2096
3018,8383,2091,2091
3019,8386,2086,2086
3020,8388,2080,2080
3021,8391,2074,2074
3022,8394,2069,2069
3023,8397,2064,2064
3024,8400,2060,2060
3025,8402,2057,2057
3026,8405,2054,2054
3027,8408,2052,2052
3028,8411,2051,2051
3029,8413,2050,2050
3030,8416,2049,2049
3031,8419,2049,2049
3032,8422,2048,2048
3033,8425,2048,2048
3034,8427,2048,2048
3035,8430,2048,2048
3036,8433,2048,2048
3037,8436,2048,2048
3038,8438,2048,2048
3039,8441,2051,2051
3040,8444,2052,2052
3041,8447,2055,2055
3042,8450,2058,2058
3043,8452,2063,2063
3044,8455,2069,2069
3045,8458,2078,2078
3046,8461,2089,2089
3047,8463,2103,2103
3048,8466,2120,2120
3049,8469,2141,2141
3050,8472,2165,2165
3051,8475,2192,2192
3052,8477,2221,2221
3053,8480,2252,2252
3054,8483,2284,2284
3055,8486,2314,2314
3056,8488,2342,2342
3057,8491,2365,2365
3058,8494,2383,2383
3059,8497,2394,2394
3060,8500,2398,2398
3061,8502,2394,2394
3062,8505,2383,2383
3063,8508,2365,2365
3064,8511,2342,2342
3065,8513,2314,2314
3066,8516,2284,2284
3067,8519,2252,2252
3068,8522,2221,2221
3069,8525,2192,2192
3070,8527,2165,2165
3071,8530,2141,2141
3072,8533,2120,2120
3073,8536,2103,2103
3074,8538,2089,2089
3075,8541,2078,2078
3076,8544,2069,2069
3077,8547,2063,2063
3078,8550,2058,2058
3079,8552,2055,2055
3080,8555,2052,2052
3081,8558,2048,2048
3082,8561,2048,2048
3083,8563,2048,2048
3084,8566,2048,2048
3085,8569,2048,2048
3086,8572,2048,2048
3087,8575,2048,2048
3088,8577,2048,2048
3089,8580,2048,2048
3090,8583,2048,2048
3091,8586,2048,2048
3092,8588,2048,2048
3093,8591,2048,2048
3094,8594,2048,2048
3095,8597,2048,2048
3096,8600,2048,2048
3097,8602,2048,2048
3098,8605,2048,2048
3099,8608,2048,2048
3100,8611,2048,2048
3101,8613,2048,2048
3102,8616,2048,2048
3103,8619,2048,2048
3104,8622,2048,2048
3105,8625,2048,2048
3106,8627,2048,2048
3107,8630,2048,2048
3108,8633,2048,2048
3109,8636,2048,2048
3110,8638,2048,2048
3111,8641,2049,2049
3112,8644,2049,2049
3113,8647,2049,2049
3114,8650,2048,2048
3115,8652,2048,2048
3116,8655,2048,2048
3117,8658,2048,2048
3118,8661,2048,2048
3119,8663,2048,2048
3120,8666,2048,2048
3121,8669,2048,2048
3122,8672,2048,2048
3123,8675,2048,2048
3124,8677,2048,2048
3125,8680,2048,2048
3126,8683,2048,2048
3127,8686,2048,2048
3128,8688,2048,2048
3129,8691,2048,2048
3130,8694,2048,2048
3131,8697,2048,2048
3132,8700,2048,2048
3133,8702,2048,2048
3134,8705,2048,2048
3135,8708,2048,2048
3136,8711,2048,2048
3137,8713,2048,2048
3138,8716,2048,2048
3139,8719,2048,2048
3140,8722,2048,2048
3141,8725,2048,2048
3142,8727,2048,2048
3143,8730,2048,2048
3144,8733,2048,2048
3145,8736,2048,2048
3146,8738,2048,2048
3147,8741,2048,2048
3148,8744,2048,2048
3149,8747,2048,2048
3150,8750,2048,2048
3151,8752,2049,2049
3152,8755,2049,2049
3153,8758,2050,2050
3154,8761,2051,2051
3155,8763,2052,2052
3156,8766,2054,2054
3157,8769,2057,2057
3158,8772,2060,2060
3159,8775,2064,2064
3160,8777,2069,2069
3161,8780,2074,2074
3162,8783,2080,2080
3163,8786,2086,2086
3164,8788,2091,2091
3165,8791,2096,2096
3166,8794,2100,2100
3167,8797,2102,2102
3168,8800,2103,2103
3169,8802,2102,2102
3170,8805,2100,2100
3171,8808,2096,2096
3172,8811,2091,2091
3173,8813,2086,2086
3174,8816,2080,2080
3175,8819,2074,2074
3176,8822,2069,2069
3177,8825,2064,2064
3178,8827,2060,2060
3179,8830,2057,2057
3180,8833,2054,2054
3181,8836,2052,2052
3182,8838,2051,2051
3183,8841,2050,2050
3184,8844,2049,2049
3185,8847,2049,2049
3186,8850,2048,2048
3187,8852,2048,2048
3188,8855,2048,2048
3189,8858,2048,2048
3190,8861,2048,2048
3191,8863,2048,2048
3192,8866,2048,2048
3193,8869,2051,2051
3194,8872,2052,2052
3195,8875,2055,2055
3196,8877,2058,2058
3197,8880,2063,2063
3198,8883,2069,2069
3199,8886,2078,2078
3200,8888,2089,2089
3201,8891,2103,2103
3202,8894,2120,2120
3203,8897,2141,2141
3204,8900,2165,2165
3205,8902,2192,2192
3206,8905,2221,2221
3207,8908,2252,2252
3208,8911,2284,2284
3209,8913,2314,2314
3210,8916,2342,2342
3211,8919,2365,2365
3212,8922,2383,2383
3213,8925,2394,2394
3214,8927,2398,2398
3215,8930,2394,2394
3216,8933,2383,2383
3217,8936,2365,2365
3218,8938,2342,2342
3219,8941,2314,2314
3220,8944,2284,2284
3221,8947,2252,2252
3222,8950,2221,2221
3223,8952,2192,2192
3224,8955,2165,2165
3225,8958,2141,2141
3226,8961,2120,2120
3227,8963,2103,2103
3228,8966,2089,2089
3229,8969,2078,2078
3230,8972,2069,2069
3231,8975,2063,2063
3232,8977,2058,2058
3233,8980,2055,2055
3234,8983,2052,2052
3235,8986,2048,2048
3236,8988,2048,2048
3237,8991,2048,2048
3238,8994,2048,2048
3239,8997,2048,2048
3240,9000,2048,2048
3241,9002,2048,2048
3242,9005,2048,2048
3243,9008,2048,2048
3244,9011,2048,2048
3245,9013,2048,2048
3246,9016,2048,2048
3247,9019,2048,2048
3248,9022,2048,2048
3249,9025,2048,2048
3250,9027,2048,2048
3251,9030,2048,2048
3252,9033,2048,2048
3253,9036,2048,2048
3254,9038,2048,2048
3255,9041,2048,2048
3256,9044,2048,2048
3257,9047,2048,2048
3258,9050,2048,2048
3259,9052,2048,2048
3260,9055,2048,2048
3261,9058,2048,2048
3262,9061,2048,2048
3263,9063,2048,2048
3264,9066,2048,2048
3265,9069,2049,2049
3266,9072,2049,2049
3267,9075,2049,2049
3268,9077,2048,2048
3269,9080,2048,2048
3270,9083,2048,2048
3271,9086,2048,2048
3272,9088,2048,2048
3273,9091,2048,2048
3274,9094,2048,2048
3275,9097,2048,2048
3276,9100,2048,2048
3277,9102,2048,2048
3278,9105,2048,2048
3279,9108,2048,2048
3280,9111,2048,2048
3281,9113,2048,2048
3282,9116,2048,2048
3283,9119,2048,2048
3284,9122,2048,2048
3285,9125,2048,2048
3286,9127,2048,2048
3287,9130,2048,2048
3288,9133,2048,2048
3289,9136,2048,2048
3290,9138,2048,2048
3291,9141,2048,2048
3292,9144,2048,2048
3293,9147,2048,2048
3294,9150,2048,2048
3295,9152,2048,2048
3296,9155,2048,2048
3297,9158,2048,2048
3298,9161,2048,2048
3299,9163,2048,2048
3300,9166,2048,2048
3301,9169,2048,2048
3302,9172,2048,2048
3303,9175,2048,2048
3304,9177,2048,2048
3305,9180,2049,2049
3306,9183,2049,2049
3307,9186,2050,2050
3308,9188,2051,2051
3309,9191,2052,2052
3310,9194,2054,2054
3311,9197,2057,2057
3312,9200,2060,2060
3313,9202,2064,2064
3314,9205,2069,2069
3315,9208,2074,2074
3316,9211,2080,2080
3317,9213,2086,2086
3318,9216,2091,2091
3319,9219,2096,2096
3320,9222,2100,2100
3321,9225,2102,2102
3322,9227,2103,2103
3323,9230,2102,2102
3324,9233,2100,2100
3325,9236,2096,2096
3326,9238,2091,2091
3327,9241,2086,2086
3328,9244,2080,2080
3329,9247,2074,2074
3330,9250,2069,2069
3331,9252,2064,2064
3332,9255,2060,2060
3333,9258,2057,2057
3334,9261,2054,2054
3335,9263,2052,2052
3336,9266,2051,2051
3337,9269,2050,2050
3338,9272,2049,2049
3339,9275,2049,2049
3340,9277,2048,2048
3341,9280,2048,2048
3342,9283,2048,2048
3343,9286,2048,2048
3344,9288,2048,2048
3345,9291,2048,2048
3346,9294,2048,2048
3347,9297,2051,2051
3348,9300,2052,2052
3349,9302,2055,2055
3350,9305,2058,2058
3351,9308,2063,2063
3352,9311,2069,2069
3353,9313,2078,2078
3354,9316,2089,2089
3355,9319,2103,2103
3356,9322,2120,2120
3357,9325,2141,2141
3358,9327,2165,2165
3359,9330,2192,2192
3360,9333,2221,2221
3361,9336,2252,2252
3362,9338,2284,2284
3363,9341,2314,2314
3364,9344,2342,2342
3365,9347,2365,2365
3366,9350,2383,2383
3367,9352,2394,2394
3368,9355,2398,2398
3369,9358,2394,2394
3370,9361,2383,2383
3371,9363,2365,2365
3372,9366,2342,2342
3373,9369,2314,2314
3374,9372,2284,2284
3375,9375,2252,2252
3376,9377,2221,2221
3377,9380,2192,2192
3378,9383,2165,2165
3379,9386,2141,2141
3380,9388,2120,2120
3381,9391,2103,2103
3382,9394,2089,2089
3383,9397,2078,2078
3384,9400,2069,2069
3385,9402,2063,2063
3386,9405,2058,2058
3387,9408,2055,2055
3388,9411,2052,2052
3389,9413,2048,2048
3390,9416,2048,2048
3391,9419,2048,2048
3392,9422,2048,2048
3393,9425,2048,2048
3394,9427,2048,2048
3395,9430,2048,2048
3396,9433,2048,2048
3397,9436,2048,2048
3398,9438,2048,2048
3399,9441,2048,2048
3400,9444,2048,2048
3401,9447,2048,2048
3402,9450,2048,2048
3403,9452,2048,2048
3404,9455,2048,2048
3405,9458,2048,2048
3406,9461,2048,2048
3407,9463,2048,2048
3408,9466,2048,2048
3409,9469,2048,2048
3410,9472,2048,2048
3411,9475,2048,2048
3412,9477,2048,2048
3413,9480,2048,2048
3414,9483,2048,2048
3415,9486,2048,2048
3416,9488,2048,2048
3417,9491,2048,2048
3418,9494,2048,2048
3419,9497,2049,2049
3420,9500,2049,2049
3421,9502,2049,2049
3422,9505,2048,2048
3423,9508,2048,2048
3424,9511,2048,2048
3425,9513,2048,2048
3426,9516,2048,2048
3427,9519,2048,2048
3428,9522,2048,2048
3429,9525,2048,2048
3430,9527,2048,2048
3431,9530,2048,2048
3432,9533,2048,2048
3433,9536,2048,2048
3434,9538,2048,2048
3435,9541,2048,2048
3436,9544,2048,2048
3437,9547,2048,2048
3438,9550,2048,2048
3439,9552,2048,2048
3440,9555,2048,2048
3441,9558,2048,2048
3442,9561,2048,2048
3443,9563,2048,2048
3444,9566,2048,2048
3445,9569,2048,2048
3446,9572,2048,2048
3447,9575,2048,2048
3448,9577,2048,2048
3449,9580,2048,2048
3450,9583,2048,2048
3451,9586,2048,2048
3452,9588,2048,2048
3453,9591,2048,2048
3454,9594,2048,2048
3455,9597,2048,2048
3456,9600,2048,2048
3457,9602,2048,2048
3458,9605,2048,2048
3459,9608,2049,2049
3460,9611,2049,2049
3461,9613,2050,2050
3462,9616,2051,2051
3463,9619,2052,2052
3464,9622,2054,2054
3465,9625,2057,2057
3466,9627,2060,2060
3467,9630,2064,2064
3468,9633,2069,2069
3469,9636,2074,2074
3470,9638,2080,2080
3471,9641,2086,2086
3472,9644,2091,2091
3473,9647,2096,2096
3474,9650,2100,2100
3475,9652,2102,2102
3476,9655,2103,2103
3477,9658,2102,2102
3478,9661,2100,2100
3479,9663,2096,2096
3480,9666,2091,2091
3481,9669,2086,2086
3482,9672,2080,2080
3483,9675,2074,2074
3484,9677,2069,2069
3485,9680,2064,2064
3486,9683,2060,2060
3487,9686,2057,2057
3488,9688,2054,2054
3489,9691,2052,2052
3490,9694,2051,2051
3491,9697,2050,2050
3492,9700,2049,2049
3493,9702,2049,2049
3494,9705,2048,2048
3495,9708,2048,2048
3496,9711,2048,2048
3497,9713,2048,2048
3498,9716,2048,2048
3499,9719,2048,2048
3500,9722,2048,2048
3501,9725,2051,2051
3502,9727,2052,2052
3503,9730,2055,2055
3504,9733,2058,2058
3505,9736,2063,2063
3506,9738,2069,2069
3507,9741,2078,2078
3508,9744,2089,2089
3509,9747,2103,2103
3510,9750,2120,2120
3511,9752,2141,2141
3512,9755,2165,2165
3513,9758,2192,2192
3514,9761,2221,2221
3515,9763,2252,2252
3516,9766,2284,2284
3517,9769,2314,2314
3518,9772,2342,2342
3519,9775,2365,2365
3520,9777,2383,2383
3521,9780,2394,2394
3522,9783,2398,2398
3523,9786,2394,2394
3524,9788,2383,2383
3525,9791,2365,2365
3526,9794,2342,2342
3527,9797,2314,2314
3528,9800,2284,2284
3529,9802,2252,2252
3530,9805,2221,2221
3531,9808,2192,2192
3532,9811,2165,2165
3533,9813,2141,2141
3534,9816,2120,2120
3535,9819,2103,2103
3536,9822,2089,2089
3537,9825,2078,2078
3538,9827,2069,2069
3539,9830,2063,2063
3540,9833,2058,2058
3541,9836,2055,2055
3542,9838,2052,2052
3543,9841,2048,2048
3544,9844,2048,2048
3545,9847,2048,2048
3546,9850,2048,2048
3547,9852,2048,2048
3548,9855,2048,2048
3549,9858,2048,2048
3550,9861,2048,2048
3551,9863,2048,2048
3552,9866,2048,2048
3553,9869,2048,2048
3554,9872,2048,2048
3555,9875,2048,2048
3556,9877,2048,2048
3557,9880,2048,2048
3558,9883,2048,2048
3559,9886,2048,2048
3560,9888,2048,2048
3561,9891,2048,2048
3562,9894,2048,2048
3563,9897,2048,2048
3564,9900,2048,2048
3565,9902,2048,2048
3566,9905,2048,2048
3567,9908,2048,2048
3568,9911,2048,2048
3569,9913,2048,2048
3570,9916,2048,2048
3571,9919,2048,2048
3572,9922,2048,2048
3573,9925,2049,2049
3574,9927,2049,2049
3575,9930,2049,2049
3576,9933,2048,2048
3577,9936,2048,2048
3578,9938,2048,2048
3579,9941,2048,2048
3580,9944,2048,2048
3581,9947,2048,2048
3582,9950,2048,2048
3583,9952,2048,2048
3584,9955,2048,2048
3585,9958,2048,2048
3586,9961,2048,2048
3587,9963,2048,2048
3588,9966,2048,2048
3589,9969,2048,2048
3590,9972,2048,2048
3591,9975,2048,2048
3592,9977,2048,2048
3593,9980,2048,2048
3594,9983,2048,2048
3595,9986,2048,2048
3596,9988,2048,2048
3597,9991,2048,2048
3598,9994,2048,2048
3599,9997,2048,2048
3600,10000,2048,2048
3601,10002,2048,2048
3602,10005,2048,2048
3603,10008,2048,2048
3604,10011,2048,2048
3605,10013,2048,2048
3606,10016,2048,2048
3607,10019,2048,2048
3608,10022,2048,2048
3609,10025,2048,2048
3610,10027,2048,2048
3611,10030,2048,2048
3612,10033,2048,2048
3613,10036,2049,2049
3614,10038,2049,2049
3615,10041,2050,2050
3616,10044,2051,2051
3617,10047,2052,2052
3618,10050,2054,2054
3619,10052,2057,2057
3620,10055,2060,2060
3621,10058,2064,2064
3622,10061,2069,2069
3623,10063,2074,2074
3624,10066,2080,2080
3625,10069,2086,2086
3626,10072,2091,2091
3627,10075,2096,2096
3628,10077,2100,2100
3629,10080,2102,2102
3630,10083,2103,2103
3631,10086,2102,2102
3632,10088,2100,2100
3633,10091,2096,2096
3634,10094,2091,2091
3635,10097,2086,2086
3636,10100,2080,2080
3637,10102,2074,2074
3638,10105,2069,2069
3639,10108,2064,2064
3640,10111,2060,2060
3641,10113,2057,2057
3642,10116,2054,2054
3643,10119,2052,2052
3644,10122,2051,2051
3645,10125,2050,2050
3646,10127,2049,2049
3647,10130,2049,2049
3648,10133,2048,2048
3649,10136,2048,2048
3650,10138,2048,2048
3651,10141,2048,2048
3652,10144,2048,2048
3653,10147,2048,2048
3654,10150,2048,2048
3655,10152,2051,2051
3656,10155,2052,2052
3657,10158,2055,2055
3658,10161,2058,2058
3659,10163,2063,2063
3660,10166,2069,2069
3661,10169,2078,2078
3662,10172,2089,2089
3663,10175,2103,2103
3664,10177,2120,2120
3665,10180,2141,2141
3666,10183,2165,2165
3667,10186,2192,2192
3668,10188,2221,2221
3669,10191,2252,2252
3670,10194,2284,2284
3671,10197,2314,2314
3672,10200,2342,2342
3673,10202,2365,2365
3674,10205,2383,2383
3675,10208,2394,2394
3676,10211,2398,2398
3677,10213,2394,2394
3678,10216,2383,2383
3679,10219,2365,2365
3680,10222,2342,2342
3681,10225,2314,2314
3682,10227,2284,2284
3683,10230,2252,2252
3684,10233,2221,2221
3685,10236,2192,2192
3686,10238,2165,2165
3687,10241,2141,2141
3688,10244,2120,2120
3689,10247,2103,2103
3690,10250,2089,2089
3691,10252,2078,2078
3692,10255,2069,2069
3693,10258,2063,2063
3694,10261,2058,2058
3695,10263,2055,2055
3696,10266,2052,2052
3697,10269,2048,2048
3698,10272,2048,2048
3699,10275,2048,2048
3700,10277,2048,2048
3701,10280,2048,2048
3702,10283,2048,2048
3703,10286,2048,2048
3704,10288,2048,2048
3705,10291,2048,2048
3706,10294,2048,2048
3707,10297,2048,2048
3708,10300,2048,2048
3709,10302,2048,2048
3710,10305,2048,2048
3711,10308,2048,2048
3712,10311,2048,2048
3713,10313,2048,2048
3714,10316,2048,2048
3715,10319,2048,2048
3716,10322,2048,2048
3717,10325,2048,2048
3718,10327,2048,2048
3719,10330,2048,2048
3720,10333,2048,2048
3721,10336,2048,2048
3722,10338,2048,2048
3723,10341,2048,2048
3724,10344,2048,2048
3725,10347,2048,2048
3726,10350,2048,2048
3727,10352,2049,2049
3728,10355,2049,2049
3729,10358,2049,2049
3730,10361,2048,2048
3731,10363,2048,2048
3732,10366,2048,2048
3733,10369,2048,2048
3734,10372,2048,2048
3735,10375,2048,2048
3736,10377,2048,2048
3737,10380,2048,2048
3738,10383,2048,2048
3739,10386,2048,2048
3740,10388,2048,2048
3741,10391,2048,2048
3742,10394,2048,2048
3743,10397,2048,2048
3744,10400,2048,2048
3745,10402,2048,2048
3746,10405,2048,2048
3747,10408,2048,2048
3748,10411,2048,2048
3749,10413,2048,2048
3750,10416,2048,2048
3751,10419,2048,2048
3752,10422,2048,2048
3753,10425,2048,2048
3754,10427,2048,2048
3755,10430,2048,2048
3756,10433,2048,2048
3757,10436,2048,2048
3758,10438,2048,2048
3759,10441,2048,2048
3760,10444,2048,2048
3761,10447,2048,2048
3762,10450,2048,2048
3763,10452,2048,2048
3764,10455,2048,2048
3765,10458,2048,2048
3766,10461,2048,2048
3767,10463,2049,2049
3768,10466,2049,2049
3769,10469,2050,2050
3770,10472,2051,2051
3771,10475,2052,2052
3772,10477,2054,2054
3773,10480,2057,2057
3774,10483,2060,2060
3775,10486,2064,2064
3776,10488,2069,2069
3777,10491,2074,2074
3778,10494,2080,2080
3779,10497,2086,2086
3780,10500,2091,2091
3781,10502,2096,2096
3782,10505,2100,2100
3783,10508,2102,2102
3784,10511,2103,2103
3785,10513,2102,2102
3786,10516,2100,2100
3787,10519,2096,2096
3788,10522,2091,2091
3789,10525,2086,2086
3790,10527,2080,2080
3791,10530,2074,2074
3792,10533,2069,2069
3793,10536,2064,2064
3794,10538,2060,2060
3795,10541,2057,2057
3796,10544,2054,2054
3797,10547,2052,2052
3798,10550,2051,2051
3799,10552,2050,2050
3800,10555,2049,2049
3801,10558,2049,2049
3802,10561,2048,2048
3803,10563,2048,2048
3804,10566,2048,2048
3805,10569,2048,2048
3806,10572,2048,2048
3807,10575,2048,2048
3808,10577,2048,2048
3809,10580,2051,2051
3810,10583,2052,2052
3811,10586,2055,2055
3812,10588,2058,2058
3813,10591,2063,2063
3814,10594,2069,2069
3815,10597,2078,2078
3816,10600,2089,2089
3817,10602,2103,2103
3818,10605,2120,2120
3819,10608,2141,2141
3820,10611,2165,2165
3821,10613,2192,2192
3822,10616,2221,2221
3823,10619,2252,2252
3824,10622,2284,2284
3825,10625,2314,2314
3826,10627,2342,2342
3827,10630,2365,2365
3828,10633,2383,2383
3829,10636,2394,2394
3830,10638,2398,2398
3831,10641,2394,2394
3832,10644,2383,2383
3833,10647,2365,2365
3834,10650,2342,2342
3835,10652,2314,2314
3836,10655,2284,2284
3837,10658,2252,2252
3838,10661,2221,2221
3839,10663,2192,2192
3840,10666,2165,2165
3841,10669,2141,2141
3842,10672,2120,2120
3843,10675,2103,2103
3844,10677,2089,2089
3845,10680,2078,2078
3846,10683,2069,2069
3847,10686,2063,2063
3848,10688,2058,2058
3849,10691,2055,2055
3850,10694,2052,2052
3851,10697,2048,2048
3852,10700,2048,2048
3853,10702,2048,2048
3854,10705,2048,2048
3855,10708,2048,2048
3856,10711,2048,2048
3857,10713,2048,2048
3858,10716,2048,2048
3859,10719,2048,2048
3860,10722,2048,2048
3861,10725,2048,2048
3862,10727,2048,2048
3863,10730,2048,2048
3864,10733,2048,2048
3865,10736,2048,2048
3866,10738,2048,2048
3867,10741,2048,2048
3868,10744,2048,2048
3869,10747,2048,2048
3870,10750,2048,2048
3871,10752,2048,2048
3872,10755,2048,2048
3873,10758,2048,2048
3874,10761,2048,2048
3875,10763,2048,2048
3876,10766,2048,2048
3877,10769,2048,2048
3878,10772,2048,2048
3879,10775,2048,2048
3880,10777,2048,2048
3881,10780,2049,2049
3882,10783,2049,2049
3883,10786,2049,2049
3884,10788,2048,2048
3885,10791,2048,2048
3886,10794,2048,2048
3887,10797,2048,2048
3888,10800,2048,2048
3889,10802,2048,2048
3890,10805,2048,2048
3891,10808,2048,2048
3892,10811,2048,2048
3893,10813,2048,2048
3894,10816,2048,2048
3895,10819,2048,2048
3896,10822,2048,2048
3897,10825,2048,2048
3898,10827,2048,2048
3899,10830,2048,2048
3900,10833,2048,2048
3901,10836,2048,2048
3902,10838,2048,2048
3903,10841,2048,2048
3904,10844,2048,2048
3905,10847,2048,2048
3906,10850,2048,2048
3907,10852,2048,2048
3908,10855,2048,2048
3909,10858,2048,2048
3910,10861,2048,2048
3911,10863,2048,2048
3912,10866,2048,2048
3913,10869,2048,2048
3914,10872,2048,2048
3915,10875,2048,2048
3916,10877,2048,2048
3917,10880,2048,2048
3918,10883,2048,2048
3919,10886,2048,2048
3920,10888,2048,2048
3921,10891,2049,2049
3922,10894,2049,2049
3923,10897,2050,2050
3924,10900,2051,2051
3925,10902,2052,2052
3926,10905,2054,2054
3927,10908,2057,2057
3928,10911,2060,2060
3929,10913,2064,2064
3930,10916,2069,2069
3931,10919,2074,2074
3932,10922,2080,2080
3933,10925,2086,2086
3934,10927,2091,2091
3935,10930,2096,2096
3936,10933,2100,2100
3937,10936,2102,2102
3938,10938,2103,2103
3939,10941,2102,2102
3940,10944,2100,2100
3941,10947,2096,2096
3942,10950,2091,2091
3943,10952,2086,2086
3944,10955,2080,2080
3945,10958,2074,2074
3946,10961,2069,2069
3947,10963,2064,2064
3948,10966,2060,2060
3949,10969,2057,2057
3950,10972,2054,2054
3951,10975,2052,2052
3952,10977,2051,2051
3953,10980,2050,2050
3954,10983,2049,2049
3955,10986,2049,2049
3956,10988,2048,2048
3957,10991,2048,2048
3958,10994,2048,2048
3959,10997,2048,2048
3960,11000,2048,2048
3961,11002,2048,2048
3962,11005,2048,2048
3963,11008,2051,2051
3964,11011,2052,2052
3965,11013,2055,2055
3966,11016,2058,2058
3967,11019,2063,2063
3968,11022,2069,2069
3969,11025,2078,2078
3970,11027,2089,2089
3971,11030,2103,2103
3972,11033,2120,2120
3973,11036,2141,2141
3974,11038,2165,2165
3975,11041,2192,2192
3976,11044,2221,2221
3977,11047,2252,2252
3978,11050,2284,2284
3979,11052,2314,2314
3980,11055,2342,2342
3981,11058,2365,2365
3982,11061,2383,2383
3983,11063,2394,2394
3984,11066,2398,2398
3985,11069,2394,2394
3986,11072,2383,2383
3987,11075,2365,2365
3988,11077,2342,2342
3989,11080,2314,2314
3990,11083,2284,2284
3991,11086,2252,2252
3992,11088,2221,2221
3993,11091,2192,2192
3994,11094,2165,2165
3995,11097,2141,2141
3996,11100,2120,2120
3997,11102,2103,2103
3998,11105,2089,2089
3999,11108,2078,2078
4000,11111,2069,2069
4001,11113,2063,2063
4002,11116,2058,2058
4003,11119,2055,2055
4004,11122,2052,2052
4005,11125,2048,2048
4006,11127,2048,2048
4007,11130,2048,2048
4008,11133,2048,2048
4009,11136,2048,2048
4010,11138,2048,2048
4011,11141,2048,2048
4012,11144,2048,2048
4013,11147,2048,2048
4014,11150,2048,2048
4015,11152,2048,2048
4016,11155,2048,2048
4017,11158,2048,2048
4018,11161,2048,2048
4019,11163,2048,2048
4020,11166,2048,2048
4021,11169,2048,2048
4022,11172,2048,2048
4023,11175,2048,2048
4024,11177,2048,2048
4025,11180,2048,2048
4026,11183,2048,2048
4027,11186,2048,2048
4028,11188,2048,2048
4029,11191,2048,2048
4030,11194,2048,2048
4031,11197,2048,2048
4032,11200,2048,2048
4033,11202,2048,2048
4034,11205,2048,2048
4035,11208,2049,2049
4036,11211,2049,2049
4037,11213,2049,2049
4038,11216,2048,2048
4039,11219,2048,2048
4040,11222,2048,2048
4041,11225,2048,2048
4042,11227,2048,2048
4043,11230,2048,2048
4044,11233,2048,2048
4045,11236,2048,2048
4046,11238,2048,2048
4047,11241,2048,2048
4048,11244,2048,2048
4049,11247,2048,2048
4050,11250,2048,2048
4051,11252,2048,2048
4052,11255,2048,2048
4053,11258,2048,2048
4054,11261,2048,2048
4055,11263,2048,2048
4056,11266,2048,2048
4057,11269,2048,2048
4058,11272,2048,2048
4059,11275,2048,2048
4060,11277,2048,2048
4061,11280,2048,2048
4062,11283,2048,2048
4063,11286,2048,2048
4064,11288,2048,2048
4065,11291,2048,2048
4066,11294,2048,2048
4067,11297,2048,2048
4068,11300,2048,2048
4069,11302,2048,2048
4070,11305,2048,2048
4071,11308,2048,2048
4072,11311,2048,2048
4073,11313,2048,2048
4074,11316,2048,2048
4075,11319,2049,2049
4076,11322,2049,2049
4077,11325,2050,2050
4078,11327,2051,2051
4079,11330,2052,2052
4080,11333,2054,2054
4081,11336,2057,2057
4082,11338,2060,2060
4083,11341,2064,2064
4084,11344,2069,2069
4085,11347,2074,2074
4086,11350,2080,2080
4087,11352,2086,2086
4088,11355,2091,2091
4089,11358,2096,2096
4090,11361,2100,2100
4091,11363,2102,2102
4092,11366,2103,2103
4093,11369,2102,2102
4094,11372,2100,2100
4095,11375,2096,2096
4096,11377,2091,2091
4097,11380,2086,2086
4098,11383,2080,2080
4099,11386,2074,2074
4100,11388,2069,2069
4101,11391,2064,2064
4102,11394,2060,2060
4103,11397,2057,2057
4104,11400,2054,2054
4105,11402,2052,2052
4106,11405,2051,2051
4107,11408,2050,2050
4108,11411,2049,2049
4109,11413,2049,2049
4110,11416,2048,2048
4111,11419,2048,2048
4112,11422,2048,2048
4113,11425,2048,2048
4114,11427,2048,2048
4115,11430,2048,2048
4116,11433,2048,2048
4117,11436,2051,2051
4118,11438,2052,2052
4119,11441,2055,2055
4120,11444,2058,2058
4121,11447,2063,2063
4122,11450,2069,2069
4123,11452,2078,2078
4124,11455,2089,2089
4125,11458,2103,2103
4126,11461,2120,2120
4127,11463,2141,2141
4128,11466,2165,2165
4129,11469,2192,2192
4130,11472,2221,2221
4131,11475,2252,2252
4132,11477,2284,2284
4133,11480,2314,2314
4134,11483,2342,2342
4135,11486,2365,2365
4136,11488,2383,2383
4137,11491,2394,2394
4138,11494,2398,2398
4139,11497,2394,2394
4140,11500,2383,2383
4141,11502,2365,2365
4142,11505,2342,2342
4143,11508,2314,2314
4144,11511,2284,2284
4145,11513,2252,2252
4146,11516,2221,2221
4147,11519,2192,2192
4148,11522,2165,2165
4149,11525,2141,2141
4150,11527,2120,2120
4151,11530,2103,2103
4152,11533,2089,2089
4153,11536,2078,2078
4154,11538,2069,2069
4155,11541,2063,2063
4156,11544,2058,2058
4157,11547,2055,2055
4158,11550,2052,2052
4159,11552,2048,2048
4160,11555,2048,2048
4161,11558,2048,2048
4162,11561,2048,2048
4163,11563,2048,2048
4164,11566,2048,2048
4165,11569,2048,2048
4166,11572,2048,2048
4167,11575,2048,2048
4168,11577,2048,2048
4169,11580,2048,2048
4170,11583,2048,2048
4171,11586,2048,2048
4172,11588,2048,2048
4173,11591,2048,2048
4174,11594,2048,2048
4175,11597,2048,2048
4176,11600,2048,2048
4177,11602,2048,2048
4178,11605,2048,2048
4179,11608,2048,2048
4180,11611,2048,2048
4181,11613,2048,2048
4182,11616,2048,2048
4183,11619,2048,2048
4184,11622,2048,2048
4185,11625,2048,2048
4186,11627,2048,2048
4187,11630,2048,2048
4188,11633,2048,2048
4189,11636,2049,2049
4190,11638,2049,2049
4191,11641,2049,2049
4192,11644,2048,2048
4193,11647,2048,2048
4194,11650,2048,2048
4195,11652,2048,2048
4196,11655,2048,2048
4197,11658,2048,2048
4198,11661,2048,2048
4199,11663,2048,2048
4200,11666,2048,2048
4201,11669,2048,2048
4202,11672,2048,2048
4203,11675,2048,2048
4204,11677,2048,2048
4205,11680,2048,2048
4206,11683,2048,2048
4207,11686,2048,2048
4208,11688,2048,2048
4209,11691,2048,2048
4210,11694,2048,2048
4211,11697,2048,2048
4212,11700,2048,2048
4213,11702,2048,2048
4214,11705,2048,2048
4215,11708,2048,2048
4216,11711,2048,2048
4217,11713,2048,2048
4218,11716,2048,2048
4219,11719,2048,2048
4220,11722,2048,2048
4221,11725,2048,2048
4222,11727,2048,2048
4223,11730,2048,2048
4224,11733,2048,2048
4225,11736,2048,2048
4226,11738,2048,2048
4227,11741,2048,2048
4228,11744,2048,2048
4229,11747,2049,2049
4230,11750,2049,2049
4231,11752,2050,2050
4232,11755,2051,2051
4233,11758,2052,2052
4234,11761,2054,2054
4235,11763,2057,2057
4236,11766,2060,2060
4237,11769,2064,2064
4238,11772,2069,2069
4239,11775,2074,2074
4240,11777,2080,2080
4241,11780,2086,2086
4242,11783,2091,2091
4243,11786,2096,2096
4244,11788,2100,2100
4245,11791,2102,2102
4246,11794,2103,2103
4247,11797,2102,2102
4248,11800,2100,2100
4249,11802,2096,2096
4250,11805,2091,2091
4251,11808,2086,2086
4252,11811,2080,2080
4253,11813,2074,2074
4254,11816,2069,2069
4255,11819,2064,2064
4256,11822,2060,2060
4257,11825,2057,2057
4258,11827,2054,2054
4259,11830,2052,2052
4260,11833,2051,2051
4261,11836,2050,2050
4262,11838,2049,2049
4263,11841,2049,2049
4264,11844,2048,2048
4265,11847,2048,2048
4266,11850,2048,2048
4267,11852,2048,2048
4268,11855,2048,2048
4269,11858,2048,2048
4270,11861,2048,2048
4271,11863,2051,2051
4272,11866,2052,2052
4273,11869,2055,2055
4274,11872,2058,2058
4275,11875,2063,2063
4276,11877,2069,2069
4277,11880,2078,2078
4278,11883,2089,2089
4279,11886,2103,2103
4280,11888,2120,2120
4281,11891,2141,2141
4282,11894,2165,2165
4283,11897,2192,2192
4284,11900,2221,2221
4285,11902,2252,2252
4286,11905,2284,2284
4287,11908,2314,2314
4288,11911,2342,2342
4289,11913,2365,2365
4290,11916,2383,2383
4291,11919,2394,2394
4292,11922,2398,2398
4293,11925,2394,2394
4294,11927,2383,2383
4295,11930,2365,2365
4296,11933,2342,2342
4297,11936,2314,2314
4298,11938,2284,2284
4299,11941,2252,2252
4300,11944,2221,2221
4301,11947,2192,2192
4302,11950,2165,2165
4303,11952,2141,2141
4304,11955,2120,2120
4305,11958,2103,2103
4306,11961,2089,2089
4307,11963,2078,2078
4308,11966,2069,2069
4309,11969,2063,2063
4310,11972,2058,2058
4311,11975,2055,2055
4312,11977,2052,2052
4313,11980,2048,2048
4314,11983,2048,2048
4315,11986,2048,2048
4316,11988,2048,2048
4317,11991,2048,2048
4318,11994,2048,2048
4319,11997,2048,2048
4320,12000,2048,2048
4321,12002,2048,2048
4322,12005,2048,2048
4323,12008,2048,2048
4324,12011,2048,2048
4325,12013,2048,2048
4326,12016,2048,2048
4327,12019,2048,2048
4328,12022,2048,2048
4329,12025,2048,2048
4330,12027,2048,2048
4331,12030,2048,2048
4332,12033,2048,2048
4333,12036,2048,2048
4334,12038,2048,2048
4335,12041,2048,2048
4336,12044,2048,2048
4337,12047,2048,2048
4338,12050,2048,2048
4339,12052,2048,2048
4340,12055,2048,2048
4341,12058,2048,2048
4342,12061,2048,2048
4343,12063,2049,2049
4344,12066,2049,2049
4345,12069,2049,2049
4346,12072,2048,2048
4347,12075,2048,2048
4348,12077,2048,2048
4349,12080,2048,2048
4350,12083,2048,2048
4351,12086,2048,2048
4352,12088,2048,2048
4353,12091,2048,2048
4354,12094,2048,2048
4355,12097,2048,2048
4356,12100,2048,2048
4357,12102,2048,2048
4358,12105,2048,2048
4359,12108,2048,2048
4360,12111,2048,2048
4361,12113,2048,2048
4362,12116,2048,2048
4363,12119,2048,2048
4364,12122,2048,2048
4365,12125,2048,2048
4366,12127,2048,2048
4367,12130,2048,2048
4368,12133,2048,2048
4369,12136,2048,2048
4370,12138,2048,2048
4371,12141,2048,2048
4372,12144,2048,2048
4373,12147,2048,2048
4374,12150,2048,2048
4375,12152,2048,2048
4376,12155,2048,2048
4377,12158,2048,2048
4378,12161,2048,2048
4379,12163,2048,2048
4380,12166,2048,2048
4381,12169,2048,2048
4382,12172,2048,2048
4383,12175,2049,2049
4384,12177,2049,2049
4385,12180,2050,2050
4386,12183,2051,2051
4387,12186,2052,2052
4388,12188,2054,2054
4389,12191,2057,2057
4390,12194,2060,2060
4391,12197,2064,2064
4392,12200,2069,2069
4393,12202,2074,2074
4394,12205,2080,2080
4395,12208,2086,2086
4396,12211,2091,2091
4397,12213,2096,2096
4398,12216,2100,2100
4399,12219,2102,2102
4400,12222,2103,2103
4401,12225,2102,2102
4402,12227,2100,2100
4403,12230,2096,2096
4404,12233,2091,2091
4405,12236,2086,2086
4406,12238,2080,2080
4407,12241,2074,2074
4408,12244,2069,2069
4409,12247,2064,2064
4410,12250,2060,2060
4411,12252,2057,2057
4412,12255,2054,2054
4413,12258,2052,2052
4414,12261,2051,2051
4415,12263,2050,2050
4416,12266,2049,2049
4417,12269,2049,2049
4418,12272,2048,2048
4419,12275,2048,2048
4420,12277,2048,2048
4421,12280,2048,2048
4422,12283,2048,2048
4423,12286,2048,2048
4424,12288,2048,2048
4425,12291,2051,2051
4426,12294,2052,2052
4427,12297,2055,2055
4428,12300,2058,2058
4429,12302,2063,2063
4430,12305,2069,2069
4431,12308,2078,2078
4432,12311,2089,2089
4433,12313,2103,2103
4434,12316,2120,2120
4435,12319,2141,2141
4436,12322,2165,2165
4437,12325,2192,2192
4438,12327,2221,2221
4439,12330,2252,2252
4440,12333,2284,2284
4441,12336,2314,2314
4442,12338,2342,2342
4443,12341,2365,2365
4444,12344,2383,2383
4445,12347,2394,2394
4446,12350,2398,2398
4447,12352,2394,2394
4448,12355,2383,2383
4449,12358,2365,2365
4450,12361,2342,2342
4451,12363,2314,2314
4452,12366,2284,2284
4453,12369,2252,2252
4454,12372,2221,2221
4455,12375,2192,2192
4456,12377,2165,2165
4457,12380,2141,2141
4458,12383,2120,2120
4459,12386,2103,2103
4460,12388,2089,2089
4461,12391,2078,2078
4462,12394,2069,2069
4463,12397,2063,2063
4464,12400,2058,2058
4465,12402,2055,2055
4466,12405,2052,2052
4467,12408,2048,2048
4468,12411,2048,2048
4469,12413,2048,2048
4470,12416,2048,2048
4471,12419,2048,2048
4472,12422,2048,2048
4473,12425,2048,2048
4474,12427,2048,2048
4475,12430,2048,2048
4476,12433,2048,2048
4477,12436,2048,2048
4478,12438,2048,2048
4479,12441,2048,2048
4480,12444,2048,2048
4481,12447,2048,2048
4482,12450,2048,2048
4483,12452,2048,2048
4484,12455,2048,2048
4485,12458,2048,2048
4486,12461,2048,2048
4487,12463,2048,2048
4488,12466,2048,2048
4489,12469,2048,2048
4490,12472,2048,2048
4491,12475,2048,2048
4492,12477,2048,2048
4493,12480,2048,2048
4494,12483,2048,2048
4495,12486,2048,2048
4496,12488,2048,2048
4497,12491,2049,2049
4498,12494,2049,2049
4499,12497,2049,2049
4500,12500,2048,2048
4501,12502,2048,2048
4502,12505,2048,2048
4503,12508,2048,2048
4504,12511,2048,2048
4505,12513,2048,2048
4506,12516,2048,2048
4507,12519,2048,2048
4508,12522,2048,2048
4509,12525,2048,2048
4510,12527,2048,2048
4511,12530,2048,2048
4512,12533,2048,2048
4513,12536,2048,2048
4514,12538,2048,2048
4515,12541,2048,2048
4516,12544,2048,2048
4517,12547,2048,2048
4518,12550,2048,2048
4519,12552,2048,2048
4520,12555,2048,2048
4521,12558,2048,2048
4522,12561,2048,2048
4523,12563,2048,2048
4524,12566,2048,2048
4525,12569,2048,2048
4526,12572,2048,2048
4527,12575,2048,2048
4528,12577,2048,2048
4529,12580,2048,2048
4530,12583,2048,2048
4531,12586,2048,2048
4532,12588,2048,2048
4533,12591,2048,2048
4534,12594,2048,2048
4535,12597,2048,2048
4536,12600,2048,2048
4537,12602,2049,2049
4538,12605,2049,2049
4539,12608,2050,2050
4540,12611,2051,2051
4541,12613,2052,2052
4542,12616,2054,2054
4543,12619,2057,2057
4544,12622,2060,2060
4545,12625,2064,2064
4546,12627,2069,2069
4547,12630,2074,2074
4548,12633,2080,2080
4549,12636,2086,2086
4550,12638,2091,2091
4551,12641,2096,2096
4552,12644,2100,2100
4553,12647,2102,2102
4554,12650,2103,2103
4555,12652,2102,2102
4556,12655,2100,2100
4557,12658,2096,2096
4558,12661,2091,2091
4559,12663,2086,2086
4560,12666,2080,2080
4561,12669,2074,2074
4562,12672,2069,2069
4563,12675,2064,2064
4564,12677,2060,2060
4565,12680,2057,2057
4566,12683,2054,2054
4567,12686,2052,2052
4568,12688,2051,2051
4569,12691,2050,2050
4570,12694,2049,2049
4571,12697,2049,2049
4572,12700,2048,2048
4573,12702,2048,2048
4574,12705,2048,2048
4575,12708,2048,2048
4576,12711,2048,2048
4577,12713,2048,2048
4578,12716,2048,2048
4579,12719,2051,2051
4580,12722,2052,2052
4581,12725,2055,2055
4582,12727,2058,2058
4583,12730,2063,2063
4584,12733,2069,2069
4585,12736,2078,2078
4586,12738,2089,2089
4587,12741,2103,2103
4588,12744,2120,2120
4589,12747,2141,2141
4590,12750,2165,2165
4591,12752,2192,2192
4592,12755,2221,2221
4593,12758,2252,2252
4594,12761,2284,2284
4595,12763,2314,2314
4596,12766,2342,2342
4597,12769,2365,2365
4598,12772,2383,2383
4599,12775,2394,2394
4600,12777,2398,2398
4601,12780,2394,2394
4602,12783,2383,2383
4603,12786,2365,2365
4604,12788,2342,2342
4605,12791,2314,2314
4606,12794,2284,2284
4607,12797,2252,2252
4608,12800,2221,2221
4609,12802,2192,2192
4610,12805,2165,2165
4611,12808,2141,2141
4612,12811,2120,2120
4613,12813,2103,2103
4614,12816,2089,2089
4615,12819,2078,2078
4616,12822,2069,2069
4617,12825,2063,2063
4618,12827,2058,2058
4619,12830,2055,2055
4620,12833,2052,2052
4621,12836,2048,2048
4622,12838,2048,2048
4623,12841,2048,2048
4624,12844,2048,2048
4625,12847,2048,2048
4626,12850,2048,2048
4627,12852,2048,2048
4628,12855,2048,2048
4629,12858,2048,2048
4630,12861,2048,2048
4631,12863,2048,2048
4632,12866,2048,2048
4633,12869,2048,2048
4634,12872,2048,2048
4635,12875,2048,2048
4636,12877,2048,2048
4637,12880,2048,2048
4638,12883,2048,2048
4639,12886,2048,2048
4640,12888,2048,2048
4641,12891,2048,2048
4642,12894,2048,2048
4643,12897,2048,2048
4644,12900,2048,2048
4645,12902,2048,2048
4646,12905,2048,2048
4647,12908,2048,2048
4648,12911,2048,2048
4649,12913,2048,2048
4650,12916,2048,2048
4651,12919,2049,2049
4652,12922,2049,2049
4653,12925,2049,2049
4654,12927,2048,2048
4655,12930,2048,2048
4656,12933,2048,2048
4657,12936,2048,2048
4658,12938,2048,2048
4659,12941,2048,2048
4660,12944,2048,2048
4661,12947,2048,2048
4662,12950,2048,2048
4663,12952,2048,2048
4664,12955,2048,2048
4665,12958,2048,2048
4666,12961,2048,2048
4667,12963,2048,2048
4668,12966,2048,2048
4669,12969,2048,2048
4670,12972,2048,2048
4671,12975,2048,2048
4672,12977,2048,2048
4673,12980,2048,2048
4674,12983,2048,2048
4675,12986,2048,2048
4676,12988,2048,2048
4677,12991,2048,2048
4678,12994,2048,2048
4679,12997,2048,2048
4680,13000,2048,2048
4681,13002,2048,2048
4682,13005,2048,2048
4683,13008,2048,2048
4684,13011,2048,2048
4685,13013,2048,2048
4686,13016,2048,2048
4687,13019,2048,2048
4688,13022,2048,2048
4689,13025,2048,2048
4690,13027,2048,2048
4691,13030,2049,2049
4692,13033,2049,2049
4693,13036,2050,2050
4694,13038,2051,2051
4695,13041,2052,2052
4696,13044,2054,2054
4697,13047,2057,2057
4698,13050,2060,2060
4699,13052,2064,2064
4700,13055,2069,2069
4701,13058,2074,2074
4702,13061,2080,2080
4703,13063,2086,2086
4704,13066,2091,2091
4705,13069,2096,2096
4706,13072,2100,2100
4707,13075,2102,2102
4708,13077,2103,2103
4709,13080,2102,2102
4710,13083,2100,2100
4711,13086,2096,2096
4712,13088,2091,2091
4713,13091,2086,2086
4714,13094,2080,2080
4715,13097,2074,2074
4716,13100,2069,2069
4717,13102,2064,2064
4718,13105,2060,2060
4719,13108,2057,2057
4720,13111,2054,2054
4721,13113,2052,2052
4722,13116,2051,2051
4723,13119,2050,2050
4724,13122,2049,2049
4725,13125,2049,2049
4726,13127,2048,2048
4727,13130,2048,2048
4728,13133,2048,2048
4729,13136,2048,2048
4730,13138,2048,2048
4731,13141,2048,2048
4732,13144,2048,2048
4733,13147,2051,2051
4734,13150,2052,2052
4735,13152,2055,2055
4736,13155,2058,2058
4737,13158,2063,2063
4738,13161,2069,2069
4739,13163,2078,2078
4740,13166,2089,2089
4741,13169,2103,2103
4742,13172,2120,2120
4743,13175,2141,2141
4744,13177,2165,2165
4745,13180,2192,2192
4746,13183,2221,2221
4747,13186,2252,2252
4748,13188,2284,2284
4749,13191,2314,2314
4750,13194,2342,2342
4751,13197,2365,2365
4752,13200,2383,2383
4753,13202,2394,2394
4754,13205,2398,2398
4755,13208,2394,2394
4756,13211,2383,2383
4757,13213,2365,2365
4758,13216,2342,2342
4759,13219,2314,2314
4760,13222,2284,2284
4761,13225,2252,2252
4762,13227,2221,2221
4763,13230,2192,2192
4764,13233,2165,2165
4765,13236,2141,2141
4766,13238,2120,2120
4767,13241,2103,2103
4768,13244,2089,2089
4769,13247,2078,2078
4770,13250,2069,2069
4771,13252,2063,2063
4772,13255,2058,2058
4773,13258,2055,2055
4774,13261,2052,2052
4775,13263,2048,2048
4776,13266,2048,2048
4777,13269,2048,2048
4778,13272,2048,2048
4779,13275,2048,2048
4780,13277,2048,2048
4781,13280,2048,2048
4782,13283,2048,2048
4783,13286,2048,2048
4784,13288,2048,2048
4785,13291,2048,2048
4786,13294,2048,2048
4787,13297,2048,2048
4788,13300,2048,2048
4789,13302,2048,2048
4790,13305,2048,2048
4791,13308,2048,2048
4792,13311,2048,2048
4793,13313,2048,2048
4794,13316,2048,2048
4795,13319,2048,2048
4796,13322,2048,2048
4797,13325,2048,2048
4798,13327,2048,2048
4799,13330,2048,2048
4800,13333,2048,2048
4801,13336,2048,2048
4802,13338,2048,2048
4803,13341,2048,2048
4804,13344,2048,2048
4805,13347,2049,2049
4806,13350,2049,2049
4807,13352,2049,2049
4808,13355,2048,2048
4809,13358,2048,2048
4810,13361,2048,2048
4811,13363,2048,2048
4812,13366,2048,2048
4813,13369,2048,2048
4814,13372,2048,2048
4815,13375,2048,2048
4816,13377,2048,2048
4817,13380,2048,2048
4818,13383,2048,2048
4819,13386,2048,2048
4820,13388,2048,2048
4821,13391,2048,2048
4822,13394,2048,2048
4823,13397,2048,2048
4824,13400,2048,2048
4825,13402,2048,2048
4826,13405,2048,2048
4827,13408,2048,2048
4828,13411,2048,2048
4829,13413,2048,2048
4830,13416,2048,2048
4831,13419,2048,2048
4832,13422,2048,2048
4833,13425,2048,2048
4834,13427,2048,2048
4835,13430,2048,2048
4836,13433,2048,2048
4837,13436,2048,2048
4838,13438,2048,2048
4839,13441,2048,2048
4840,13444,2048,2048
4841,13447,2048,2048
4842,13450,2048,2048
4843,13452,2048,2048
4844,13455,2048,2048
4845,13458,2049,2049
4846,13461,2049,2049
4847,13463,2050,2050
4848,13466,2051,2051
4849,13469,2052,2052
4850,13472,2054,2054
4851,13475,2057,2057
4852,13477,2060,2060
4853,13480,2064,2064
4854,13483,2069,2069
4855,13486,2074,2074
4856,13488,2080,2080
4857,13491,2086,2086
4858,13494,2091,2091
4859,13497,2096,2096
4860,13500,2100,2100
4861,13502,2102,2102
4862,13505,2103,2103
4863,13508,2102,2102
4864,13511,2100,2100
4865,13513,2096,2096
4866,13516,2091,2091
4867,13519,2086,2086
4868,13522,2080,2080
4869,13525,2074,2074
4870,13527,2069,2069
4871,13530,2064,2064
4872,13533,2060,2060
4873,13536,2057,2057
4874,13538,2054,2054
4875,13541,2052,2052
4876,13544,2051,2051
4877,13547,2050,2050
4878,13550,2049,2049
4879,13552,2049,2049
4880,13555,2048,2048
4881,13558,2048,2048
4882,13561,2048,2048
4883,13563,2048,2048
4884,13566,2048,2048
4885,13569,2048,2048
4886,13572,2048,2048
4887,13575,2051,2051
4888,13577,2052,2052
4889,13580,2055,2055
4890,13583,2058,2058
4891,13586,2063,2063
4892,13588,2069,2069
4893,13591,2078,2078
4894,13594,2089,2089
4895,13597,2103,2103
4896,13600,2120,2120
4897,13602,2141,2141
4898,13605,2165,2165
4899,13608,2192,2192
4900,13611,2221,2221
4901,13613,2252,2252
4902,13616,2284,2284
4903,13619,2314,2314
4904,13622,2342,2342
4905,13625,2365,2365
4906,13627,2383,2383
4907,13630,2394,2394
4908,13633,2398,2398
4909,13636,2394,2394
4910,13638,2383,2383
4911,13641,2365,2365
4912,13644,2342,2342
4913,13647,2314,2314
4914,13650,2284,2284
4915,13652,2252,2252
4916,13655,2221,2221
4917,13658,2192,2192
4918,13661,2165,2165
4919,13663,2141,2141
4920,13666,2120,2120
4921,13669,2103,2103
4922,13672,2089,2089
4923,13675,2078,2078
4924,13677,2069,2069
4925,13680,2063,2063
4926,13683,2058,2058
4927,13686,2055,2055
4928,13688,2052,2052
4929,13691,2048,2048
4930,13694,2048,2048
4931,13697,2048,2048
4932,13700,2048,2048
4933,13702,2048,2048
4934,13705,2048,2048
4935,13708,2048,2048
4936,13711,2048,2048
4937,13713,2048,2048
4938,13716,2048,2048
4939,13719,2048,2048
4940,13722,2048,2048
4941,13725,2048,2048
4942,13727,2048,2048
4943,13730,2048,2048
4944,13733,2048,2048
4945,13736,2048,2048
4946,13738,2048,2048
4947,13741,2048,2048
4948,13744,2048,2048
4949,13747,2048,2048
4950,13750,2048,2048
4951,13752,2048,2048
4952,13755,2048,2048
4953,13758,2048,2048
4954,13761,2048,2048
4955,13763,2048,2048
4956,13766,2048,2048
4957,13769,2048,2048
4958,13772,2048,2048
4959,13775,2049,2049
4960,13777,2049,2049
4961,13780,2049,2049
4962,13783,2048,2048
4963,13786,2048,2048
4964,13788,2048,2048
4965,13791,2048,2048
4966,13794,2048,2048
4967,13797,2048,2048
4968,13800,2048,2048
4969,13802,2048,2048
4970,13805,2048,2048
4971,13808,2048,2048
4972,13811,2048,2048
4973,13813,2048,2048
4974,13816,2048,2048
4975,13819,2048,2048
4976,13822,2048,2048
4977,13825,2048,2048
4978,13827,2048,2048
4979,13830,2048,2048
4980,13833,2048,2048
4981,13836,2048,2048
4982,13838,2048,2048
4983,13841,2048,2048
4984,13844,2048,2048
4985,13847,2048,2048
4986,13850,2048,2048
4987,13852,2048,2048
4988,13855,2048,2048
4989,13858,2048,2048
4990,13861,2048,2048
4991,13863,2048,2048
4992,13866,2048,2048
4993,13869,2048,2048
4994,13872,2048,2048
4995,13875,2048,2048
4996,13877,2048,2048
4997,13880,2048,2048
4998,13883,2048,2048
4999,13886,2049,2049
5000,13888,2049,2049
5001,13891,2050,2050
5002,13894,2051,2051
5003,13897,2052,2052
5004,13900,2054,2054
5005,13902,2057,2057
5006,13905,2060,2060
5007,13908,2064,2064
5008,13911,2069,2069
5009,13913,2074,2074
5010,13916,2080,2080
5011,13919,2086,2086
5012,13922,2091,2091
5013,13925,2096,2096
5014,13927,2100,2100
5015,13930,2102,2102
5016,13933,2103,2103
5017,13936,2102,2102
5018,13938,2100,2100
5019,13941,2096,2096
5020,13944,2091,2091
5021,13947,2086,2086
5022,13950,2080,2080
5023,13952,2074,2074
5024,13955,2069,2069
5025,13958,2064,2064
5026,13961,2060,2060
5027,13963,2057,2057
5028,13966,2054,2054
5029,13969,2052,2052
5030,13972,2051,2051
5031,13975,2050,2050
5032,13977,2049,2049
5033,13980,2049,2049
5034,13983,2048,2048
5035,13986,2048,2048
5036,13988,2048,2048
5037,13991,2048,2048
5038,13994,2048,2048
5039,13997,2048,2048
5040,14000,2048,2048
5041,14002,2051,2051
5042,14005,2052,2052
5043,14008,2055,2055
5044,14011,2058,2058
5045,14013,2063,2063
5046,14016,2069,2069
5047,14019,2078,2078
5048,14022,2089,2089
5049,14025,2103,2103
5050,14027,2120,2120
5051,14030,2141,2141
5052,14033,2165,2165
5053,14036,2192,2192
5054,14038,2221,2221
5055,14041,2252,2252
5056,14044,2284,2284
5057,14047,2314,2314
5058,14050,2342,2342
5059,14052,2365,2365
5060,14055,2383,2383
5061,14058,2394,2394
5062,14061,2398,2398
5063,14063,2394,2394
5064,14066,2383,2383
5065,14069,2365,2365
5066,14072,2342,2342
5067,14075,2314,2314
5068,14077,2284,2284
5069,14080,2252,2252
5070,14083,2221,2221
5071,14086,2192,2192
5072,14088,2165,2165
5073,14091,2141,2141
5074,14094,2120,2120
5075,14097,2103,2103
5076,14100,2089,2089
5077,14102,2078,2078
5078,14105,2069,2069
5079,14108,2063,2063
5080,14111,2058,2058
5081,14113,2055,2055
5082,14116,2052,2052
5083,14119,2048,2048
5084,14122,2048,2048
5085,14125,2048,2048
5086,14127,2048,2048
5087,14130,2048,2048
5088,14133,2048,2048
5089,14136,2048,2048
5090,14138,2048,2048
5091,14141,2048,2048
5092,14144,2048,2048
5093,14147,2048,2048
5094,14150,2048,2048
5095,14152,2048,2048
5096,14155,2048,2048
5097,14158,2048,2048
5098,14161,2048,2048
5099,14163,2048,2048
5100,14166,2048,2048
5101,14169,2048,2048
5102,14172,2048,2048
5103,14175,2048,2048
5104,14177,2048,2048
5105,14180,2048,2048
5106,14183,2048,2048
5107,14186,2048,2048
5108,14188,2048,2048
5109,14191,2048,2048
5110,14194,2048,2048
5111,14197,2048,2048
5112,14200,2048,2048
5113,14202,2049,2049
5114,14205,2049,2049
5115,14208,2049,2049
5116,14211,2048,2048
5117,14213,2048,2048
5118,14216,2048,2048
5119,14219,2048,2048
5120,14222,2048,2048
5121,14225,2048,2048
5122,14227,2048,2048
5123,14230,2048,2048
5124,14233,2048,2048
5125,14236,2048,2048
5126,14238,2048,2048
5127,14241,2048,2048
5128,14244,2048,2048
5129,14247,2048,2048
5130,14250,2048,2048
5131,14252,2048,2048
5132,14255,2048,2048
5133,14258,2048,2048
5134,14261,2048,2048
5135,14263,2048,2048
5136,14266,2048,2048
5137,14269,2048,2048
5138,14272,2048,2048
5139,14275,2048,2048
5140,14277,2048,2048
5141,14280,2048,2048
5142,14283,2048,2048
5143,14286,2048,2048
5144,14288,2048,2048
5145,14291,2048,2048
5146,14294,2048,2048
5147,14297,2048,2048
5148,14300,2048,2048
5149,14302,2048,2048
5150,14305,2048,2048
5151,14308,2048,2048
5152,14311,2048,2048
5153,14313,2049,2049
5154,14316,2049,2049
5155,14319,2050,2050
5156,14322,2051,2051
5157,14325,2052,2052
5158,14327,2054,2054
5159,14330,2057,2057
5160,14333,2060,2060
5161,14336,2064,2064
5162,14338,2069,2069
5163,14341,2074,2074
5164,14344,2080,2080
5165,14347,2086,2086
5166,14350,2091,2091
5167,14352,2096,2096
5168,14355,2100,2100
5169,14358,2102,2102
5170,14361,2103,2103
5171,14363,2102,2102
5172,14366,2100,2100
5173,14369,2096,2096
5174,14372,2091,2091
5175,14375,2086,2086
5176,14377,2080,2080
5177,14380,2074,2074
5178,14383,2069,2069
5179,14386,2064,2064
5180,14388,2060,2060
5181,14391,2057,2057
5182,14394,2054,2054
5183,14397,2052,2052
5184,14400,2051,2051
5185,14402,2050,2050
5186,14405,2049,2049
5187,14408,2049,2049
5188,14411,2048,2048
5189,14413,2048,2048
5190,14416,2048,2048
5191,14419,2048,2048
5192,14422,2048,2048
5193,14425,2048,2048
5194,14427,2048,2048
5195,14430,2051,2051
5196,14433,2052,2052
5197,14436,2055,2055
5198,14438,2058,2058
5199,14441,2063,2063
5200,14444,2069,2069
5201,14447,2078,2078
5202,14450,2089,2089
5203,14452,2103,2103
5204,14455,2120,2120
5205,14458,2141,2141
5206,14461,2165,2165
5207,14463,2192,2192
5208,14466,2221,2221
5209,14469,2252,2252
5210,14472,2284,2284
5211,14475,2314,2314
5212,14477,2342,2342
5213,14480,2365,2365
5214,14483,2383,2383
5215,14486,2394,2394
5216,14488,2398,2398
5217,14491,2394,2394
5218,14494,2383,2383
5219,14497,2365,2365
5220,14500,2342,2342
5221,14502,2314,2314
5222,14505,2284,2284
5223,14508,2252,2252
5224,14511,2221,2221
5225,14513,2192,2192
5226,14516,2165,2165
5227,14519,2141,2141
5228,14522,2120,2120
5229,14525,2103,2103
5230,14527,2089,2089
5231,14530,2078,2078
5232,14533,2069,2069
5233,14536,2063,2063
5234,14538,2058,2058
5235,14541,2055,2055
5236,14544,2052,2052
5237,14547,2048,2048
5238,14550,2048,2048
5239,14552,2048,2048
5240,14555,2048,2048
5241,14558,2048,2048
5242,14561,2048,2048
5243,14563,2048,2048
5244,14566,2048,2048
5245,14569,2048,2048
5246,14572,2048,2048
5247,14575,2048,2048
5248,14577,2048,2048
5249,14580,2048,2048
5250,14583,2048,2048
5251,14586,2048,2048
5252,14588,2048,2048
5253,14591,2048,2048
5254,14594,2048,2048
5255,14597,2048,2048
5256,14600,2048,2048
5257,14602,2048,2048
5258,14605,2048,2048
5259,14608,2048,2048
5260,14611,2048,2048
5261,14613,2048,2048
5262,14616,2048,2048
5263,14619,2048,2048
5264,14622,2048,2048
5265,14625,2048,2048
5266,14627,2048,2048
5267,14630,2049,2049
5268,14633,2049,2049
5269,14636,2049,2049
5270,14638,2048,2048
5271,14641,2048,2048
5272,14644,2048,2048
5273,14647,2048,2048
5274,14650,2048,2048
5275,14652,2048,2048
5276,14655,2048,2048
5277,14658,2048,2048
5278,14661,2048,2048
5279,14663,2048,2048
5280,14666,2048,2048
5281,14669,2048,2048
5282,14672,2048,2048
5283,14675,2048,2048
5284,14677,2048,2048
5285,14680,2048,2048
5286,14683,2048,2048
5287,14686,2048,2048
5288,14688,2048,2048
5289,14691,2048,2048
5290,14694,2048,2048
5291,14697,2048,2048
5292,14700,2048,2048
5293,14702,2048,2048
5294,14705,2048,2048
5295,14708,2048,2048
5296,14711,2048,2048
5297,14713,2048,2048
5298,14716,2048,2048
5299,14719,2048,2048
5300,14722,2048,2048
5301,14725,2048,2048
5302,14727,2048,2048
5303,14730,2048,2048
5304,14733,2048,2048
5305,14736,2048,2048
5306,14738,2048,2048
5307,14741,2049,2049
5308,14744,2049,2049
5309,14747,2050,2050
5310,14750,2051,2051
5311,14752,2052,2052
5312,14755,2054,2054
5313,14758,2057,2057
5314,14761,2060,2060
5315,14763,2064,2064
5316,14766,2069,2069
5317,14769,2074,2074
5318,14772,2080,2080
5319,14775,2086,2086
5320,14777,2091,2091
5321,14780,2096,2096
5322,14783,2100,2100
5323,14786,2102,2102
5324,14788,2103,2103
5325,14791,2102,2102
5326,14794,2100,2100
5327,14797,2096,2096
5328,14800,2091,2091
5329,14802,2086,2086
5330,14805,2080,2080
5331,14808,2074,2074
5332,14811,2069,2069
5333,14813,2064,2064
5334,14816,2060,2060
5335,14819,2057,2057
5336,14822,2054,2054
5337,14825,2052,2052
5338,14827,2051,2051
5339,14830,2050,2050
5340,14833,2049,2049
5341,14836,2049,2049
5342,14838,2048,2048
5343,14841,2048,2048
5344,14844,2048,2048
5345,14847,2048,2048
5346,14850,2048,2048
5347,14852,2048,2048
5348,14855,2048,2048
5349,14858,2051,2051
5350,14861,2052,2052
5351,14863,2055,2055
5352,14866,2058,2058
5353,14869,2063,2063
5354,14872,2069,2069
5355,14875,2078,2078
5356,14877,2089,2089
5357,14880,2103,2103
5358,14883,2120,2120
5359,14886,2141,2141
5360,14888,2165,2165
5361,14891,2192,2192
5362,14894,2221,2221
5363,14897,2252,2252
5364,14900,2284,2284
5365,14902,2314,2314
5366,14905,2342,2342
5367,14908,2365,2365
5368,14911,2383,2383
5369,14913,2394,2394
5370,14916,2398,2398
5371,14919,2394,2394
5372,14922,2383,2383
5373,14925,2365,2365
5374,14927,2342,2342
5375,14930,2314,2314
5376,14933,2284,2284
5377,14936,2252,2252
5378,14938,2221,2221
5379,14941,2192,2192
5380,14944,2165,2165
5381,14947,2141,2141
5382,14950,2120,2120
5383,14952,2103,2103
5384,14955,2089,2089
5385,14958,2078,2078
5386,14961,2069,2069
5387,14963,2063,2063
5388,14966,2058,2058
5389,14969,2055,2055
5390,14972,2052,2052
5391,14975,2048,2048
5392,14977,2048,2048
5393,14980,2048,2048
5394,14983,2048,2048
5395,14986,2048,2048
5396,14988,2048,2048
5397,14991,2048,2048
5398,14994,2048,2048
5399,14997,2048,2048
