Index,Time_ms,Raw,Filtered
0,1,2582.0,1950.0
1,7,2255.0,1954.0
2,9,1184.0,1953.0
3,11,889.0,1951.0
4,18,1778.0,1953.0
5,18,2588.0,1953.0
6,30,2257.0,1957.0
7,37,1201.0,1958.0
8,37,914.0,1960.0
9,44,1805.0,1966.0
10,48,2611.0,1968.0
11,58,2272.0,1972.0
12,60,1214.0,1974.0
13,68,925.0,1975.0
14,70,1823.0,1982.0
15,79,2639.0,1985.0
16,84,2315.0,1994.0
17,90,1253.0,1999.0
18,93,964.0,2004.0
19,98,1846.0,2010.0
20,101,2660.0,2012.0
21,108,2329.0,2019.0
22,111,1279.0,2024.0
23,113,993.0,2029.0
24,115,1875.0,2036.0
25,123,2676.0,2036.0
26,127,2348.0,2042.0
27,130,1291.0,2045.0
28,134,997.0,2047.0
29,140,1883.0,2052.0
30,142,2695.0,2053.0
31,143,2367.0,2059.0
32,151,1305.0,2061.0
33,153,1012.0,2063.0
34,154,1892.0,2067.0
35,163,2681.0,2063.0
36,167,2355.0,2065.0
37,172,1300.0,2065.0
38,176,991.0,2062.0
39,186,1820.0,2054.0
40,188,2672.0,2051.0
41,195,2341.0,2052.0
42,201,1289.0,2051.0
43,209,992.0,2051.0
44,218,1869.0,2054.0
45,224,2674.0,2051.0
46,228,2338.0,2052.0
47,235,1271.0,2048.0
48,236,971.0,2045.0
49,236,1882.0,2051.0
50,236,2663.0,2047.0
51,248,2339.0,2048.0
52,251,1305.0,2052.0
53,255,1031.0,2058.0
54,257,1953.0,2073.0
55,260,2810.0,2090.0
56,266,2473.0,2108.0
57,267,1412.0,2120.0
58,275,1150.0,2136.0
59,277,2067.0,2156.0
60,277,2902.0,2174.0
61,291,2553.0,2190.0
62,291,1489.0,2201.0
63,307,1156.0,2203.0
64,307,2010.0,2202.0
65,319,2782.0,2189.0
66,326,2410.0,2177.0
67,337,1321.0,2160.0
68,339,989.0,2139.0
69,340,1883.0,2125.0
70,351,2678.0,2107.0
71,354,2332.0,2095.0
72,363,1259.0,2081.0
73,365,948.0,2067.0
74,370,1843.0,2060.0
75,370,2620.0,2043.0
76,370,2291.0,2035.0
77,384,1226.0,2027.0
78,386,930.0,2019.0
79,391,1815.0,2015.0
80,394,2622.0,2007.0
81,394,2292.0,2006.0
82,394,1226.0,2003.0
83,405,935.0,2001.0
84,405,1825.0,2002.0
85,413,2635.0,1999.0
86,418,2290.0,2000.0
87,418,1181.0,1990.0
88,418,862.0,1978.0
89,435,1866.0,1991.0
90,444,2947.0,2042.0
91,444,2939.0,2143.0
92,451,2115.0,2269.0
93,454,2037.0,2415.0
94,472,3148.0,2577.0
95,475,4095.0,2727.0
96,484,3625.0,2829.0
97,487,2143.0,2842.0
98,492,1596.0,2812.0
99,497,2262.0,2744.0
100,497,2859.0,2638.0
101,501,2318.0,2518.0
102,501,1123.0,2401.0
103,506,809.0,2304.0
104,508,1757.0,2231.0
105,508,2646.0,2176.0
106,518,2368.0,2146.0
107,521,1327.0,2132.0
108,524,1012.0,2120.0
109,531,1876.0,2104.0
110,533,2682.0,2080.0
111,537,2341.0,2064.0
112,545,1279.0,2055.0
113,545,971.0,2048.0
114,549,1846.0,2040.0
115,555,2643.0,2022.0
116,566,2316.0,2014.0
117,570,1257.0,2009.0
118,581,955.0,2007.0
119,584,1843.0,2005.0
120,587,2656.0,1997.0
121,590,2334.0,1997.0
122,594,1280.0,1999.0
123,606,983.0,2003.0
124,606,1859.0,2006.0
125,613,2671.0,2001.0
126,618,2352.0,2004.0
127,621,1291.0,2007.0
128,624,988.0,2010.0
129,630,1860.0,2012.0
130,632,2674.0,2008.0
131,632,2348.0,2009.0
132,636,1303.0,2013.0
133,642,1002.0,2016.0
134,648,1891.0,2023.0
135,650,2713.0,2024.0
136,656,2396.0,2031.0
137,658,1349.0,2039.0
138,660,1058.0,2048.0
139,665,1928.0,2055.0
140,674,2739.0,2056.0
141,674,2432.0,2064.0
142,678,1372.0,2069.0
143,688,1081.0,2076.0
144,690,1964.0,2084.0
145,696,2788.0,2089.0
146,705,2466.0,2097.0
147,708,1421.0,2105.0
148,710,1156.0,2118.0
149,717,2070.0,2136.0
150,727,2948.0,2159.0
151,741,2641.0,2185.0
152,746,1577.0,2204.0
153,751,1277.0,2221.0
154,756,2141.0,2234.0
155,756,2944.0,2238.0
156,759,2583.0,2239.0
157,763,1494.0,2233.0
158,763,1165.0,2224.0
159,767,1991.0,2209.0
160,771,2765.0,2185.0
161,774,2379.0,2159.0
162,774,1278.0,2129.0
163,777,940.0,2097.0
164,781,1773.0,2066.0
165,784,2546.0,2029.0
166,793,2190.0,1997.0
167,795,1084.0,1962.0
168,795,743.0,1926.0
169,798,1592.0,1894.0
170,807,2375.0,1858.0
171,808,2053.0,1834.0
172,811,972.0,1808.0
173,816,668.0,1788.0
174,823,1552.0,1775.0
175,823,2364.0,1760.0
176,831,2028.0,1750.0
177,835,956.0,1738.0
178,846,648.0,1729.0
179,850,1530.0,1724.0
180,854,2360.0,1718.0
181,856,2051.0,1721.0
182,861,974.0,1720.0
183,879,669.0,1719.0
184,881,1553.0,1722.0
185,885,2373.0,1720.0
186,890,2051.0,1724.0
187,896,975.0,1724.0
188,898,677.0,1725.0
189,900,1560.0,1729.0
190,902,2394.0,1732.0
191,906,2071.0,1738.0
192,908,998.0,1741.0
193,917,683.0,1742.0
194,921,1590.0,1750.0
195,925,2414.0,1753.0
196,926,2115.0,1765.0
197,932,1063.0,1775.0
198,933,767.0,1786.0
199,940,1651.0,1798.0
200,943,2460.0,1803.0
201,945,2155.0,1814.0
202,955,1096.0,1822.0
203,959,796.0,1830.0
204,959,1682.0,1841.0
205,966,2492.0,1844.0
206,976,2184.0,1854.0
207,981,1115.0,1859.0
208,984,805.0,1863.0
209,987,1674.0,1868.0
210,999,2475.0,1864.0
211,1001,2154.0,1866.0
212,1008,1080.0,1863.0
213,1011,768.0,1861.0
214,1013,1635.0,1859.0
215,1018,2435.0,1852.0
216,1023,2126.0,1851.0
217,1027,1066.0,1849.0
218,1029,759.0,1848.0
219,1036,1631.0,1849.0
220,1039,2433.0,1844.0
221,1043,2125.0,1846.0
222,1046,1061.0,1845.0
223,1049,750.0,1844.0
224,1056,1625.0,1846.0
225,1056,2443.0,1844.0
226,1058,2121.0,1846.0
227,1067,1026.0,1840.0
228,1069,665.0,1826.0
229,1069,1501.0,1811.0
230,1078,2308.0,1793.0
231,1084,1988.0,1781.0
232,1090,924.0,1768.0
233,1090,617.0,1760.0
234,1096,1495.0,1757.0
235,1107,2300.0,1748.0
236,1113,1986.0,1745.0
237,1115,915.0,1740.0
238,1118,611.0,1737.0
239,1121,1486.0,1737.0
240,1122,2289.0,1732.0
241,1135,1969.0,1731.0
242,1139,897.0,1726.0
243,1146,605.0,1725.0
244,1146,1496.0,1731.0
245,1152,2340.0,1736.0
246,1153,2052.0,1750.0
247,1160,980.0,1758.0
248,1160,668.0,1765.0
249,1163,1569.0,1778.0
250,1163,2420.0,1790.0
251,1174,2128.0,1808.0
252,1176,1080.0,1824.0
253,1185,771.0,1839.0
254,1185,1622.0,1850.0
255,1188,2384.0,1844.0
256,1188,2025.0,1837.0
257,1194,897.0,1817.0
258,1194,543.0,1793.0
259,1206,1382.0,1770.0
260,1211,2172.0,1742.0
261,1215,1822.0,1717.0
262,1221,742.0,1693.0
263,1229,431.0,1673.0
264,1231,1297.0,1657.0
265,1246,2100.0,1639.0
266,1247,1765.0,1625.0
267,1251,671.0,1606.0
268,1257,371.0,1593.0
269,1261,1259.0,1587.0
270,1261,2089.0,1581.0
271,1268,1777.0,1581.0
272,1268,711.0,1580.0
273,1273,419.0,1583.0
274,1273,1306.0,1589.0
275,1284,2151.0,1595.0
276,1289,1852.0,1608.0
277,1293,773.0,1615.0
278,1296,421.0,1615.0
279,1301,1265.0,1611.0
280,1302,2179.0,1620.0
281,1305,2065.0,1665.0
282,1316,1363.0,1762.0
283,1317,1369.0,1899.0
284,1322,2470.0,2057.0
285,1330,3758.0,2266.0
286,1336,3389.0,2431.0
287,1349,2033.0,2517.0
288,1352,1433.0,2541.0
289,1352,2046.0,2513.0
290,1362,2692.0,2448.0
291,1362,2181.0,2360.0
292,1382,911.0,2254.0
293,1384,472.0,2151.0
294,1392,1356.0,2066.0
295,1392,2259.0,2000.0
296,1398,2029.0,1963.0
297,1401,1012.0,1945.0
298,1403,731.0,1943.0
299,1405,1627.0,1946.0
300,1413,2434.0,1936.0
301,1419,2127.0,1931.0
302,1424,1059.0,1929.0
303,1430,757.0,1934.0
304,1432,1653.0,1943.0
305,1435,2480.0,1942.0
306,1435,2175.0,1946.0
307,1448,1103.0,1950.0
308,1451,797.0,1958.0
309,1451,1700.0,1970.0
310,1461,2524.0,1973.0
311,1466,2216.0,1980.0
312,1475,1144.0,1986.0
313,1476,842.0,1995.0
314,1487,1738.0,2007.0
315,1492,2553.0,2009.0
316,1497,2246.0,2016.0
317,1501,1181.0,2022.0
318,1508,880.0,2030.0
319,1508,1771.0,2042.0
320,1518,2594.0,2045.0
321,1519,2280.0,2052.0
322,1523,1231.0,2060.0
323,1528,942.0,2072.0
324,1529,1846.0,2089.0
325,1534,2683.0,2099.0
326,1534,2371.0,2113.0
327,1539,1319.0,2126.0
328,1549,1029.0,2141.0
329,1555,1915.0,2156.0
330,1555,2752.0,2166.0
331,1566,2453.0,2182.0
332,1567,1411.0,2198.0
333,1572,1124.0,2216.0
334,1572,2024.0,2236.0
335,1584,2868.0,2252.0
336,1592,2555.0,2270.0
337,1596,1524.0,2289.0
338,1600,1263.0,2313.0
339,1611,2163.0,2339.0
340,1613,3039.0,2365.0
341,1617,2715.0,2390.0
342,1623,1662.0,2411.0
343,1632,1383.0,2433.0
344,1643,2272.0,2455.0
345,1651,3149.0,2478.0
346,1654,2772.0,2490.0
347,1658,1677.0,2495.0
348,1658,1340.0,2494.0
349,1667,2177.0,2486.0
350,1670,2958.0,2467.0
351,1675,2566.0,2444.0
352,1675,1453.0,2415.0
353,1686,1111.0,2385.0
354,1689,1958.0,2356.0
355,1689,2748.0,2322.0
356,1689,2408.0,2295.0
357,1696,1323.0,2269.0
358,1701,1018.0,2247.0
359,1701,1899.0,2231.0
360,1701,2716.0,2213.0
361,1710,2388.0,2202.0
362,1710,1332.0,2193.0
363,1717,1053.0,2190.0
364,1727,1939.0,2191.0
365,1737,2773.0,2190.0
366,1738,2465.0,2196.0
367,1753,1419.0,2203.0
368,1756,1145.0,2214.0
369,1758,2051.0,2229.0
370,1763,2891.0,2241.0
371,1773,2589.0,2260.0
372,1781,1547.0,2277.0
373,1784,1265.0,2295.0
374,1791,2154.0,2313.0
375,1796,3005.0,2329.0
376,1796,2682.0,2347.0
377,1802,1623.0,2361.0
378,1806,1331.0,2374.0
379,1811,2214.0,2387.0
380,1815,3060.0,2398.0
381,1819,2714.0,2408.0
382,1821,1657.0,2415.0
383,1827,1364.0,2423.0
384,1828,2246.0,2431.0
385,1829,3115.0,2442.0
386,1831,2764.0,2450.0
387,1839,1696.0,2455.0
388,1842,1390.0,2459.0
389,1848,2243.0,2459.0
390,1848,3100.0,2460.0
391,1848,2757.0,2462.0
392,1856,1683.0,2460.0
393,1858,1376.0,2459.0
394,1860,2241.0,2457.0
395,1863,3098.0,2456.0
396,1868,2751.0,2455.0
397,1875,1675.0,2452.0
398,1875,1358.0,2447.0
399,1884,2220.0,2442.0
400,1890,3056.0,2435.0
401,1904,2706.0,2428.0
402,1907,1625.0,2419.0
403,1918,1310.0,2410.0
404,1922,2163.0,2400.0
405,1928,2992.0,2387.0
406,1928,2638.0,2375.0
407,1934,1556.0,2362.0
408,1939,1254.0,2352.0
409,1939,2106.0,2340.0
410,1949,2926.0,2326.0
411,1952,2597.0,2317.0
412,1952,1528.0,2307.0
413,1959,1223.0,2300.0
414,1960,2098.0,2295.0
415,1969,2920.0,2287.0
416,1969,2589.0,2283.0
417,1969,1526.0,2278.0
418,1985,1226.0,2275.0
419,1991,2087.0,2272.0
420,1993,2902.0,2264.0
421,2000,2580.0,2262.0
422,2002,1521.0,2259.0
423,2002,1215.0,2256.0
424,2009,2079.0,2254.0
425,2012,2901.0,2249.0
426,2022,2585.0,2249.0
427,2032,1527.0,2248.0
428,2037,1226.0,2248.0
429,2039,2091.0,2249.0
430,2045,2932.0,2249.0
431,2046,2605.0,2252.0
432,2056,1541.0,2252.0
433,2058,1237.0,2253.0
434,2060,2106.0,2255.0
435,2063,2944.0,2255.0
436,2067,2623.0,2259.0
437,2067,1570.0,2262.0
438,2067,1277.0,2267.0
439,2074,2147.0,2272.0
440,2079,2983.0,2276.0
441,2084,2662.0,2282.0
442,2086,1617.0,2288.0
443,2086,1332.0,2297.0
444,2097,2226.0,2309.0
445,2099,3111.0,2327.0
446,2115,2774.0,2342.0
447,2117,1706.0,2353.0
448,2117,1396.0,2361.0
449,2121,2271.0,2369.0
450,2128,3144.0,2380.0
451,2130,2797.0,2388.0
452,2130,1705.0,2388.0
453,2134,1370.0,2385.0
454,2136,2191.0,2374.0
455,2143,2958.0,2350.0
456,2146,2572.0,2322.0
457,2147,1489.0,2295.0
458,2150,1226.0,2280.0
459,2155,2153.0,2278.0
460,2156,3012.0,2278.0
461,2157,2656.0,2278.0
462,2157,1548.0,2270.0
463,2163,1210.0,2257.0
464,2166,2040.0,2239.0
465,2169,2841.0,2215.0
466,2169,2516.0,2200.0
467,2169,1464.0,2189.0
468,2174,1164.0,2181.0
469,2174,2003.0,2170.0
470,2174,2801.0,2152.0
471,2177,2459.0,2139.0
472,2178,1376.0,2123.0
473,2178,1059.0,2107.0
474,2178,1906.0,2091.0
475,2178,2700.0,2070.0
476,2178,2368.0,2056.0
477,2185,1258.0,2033.0
478,2187,877.0,2002.0
479,2188,1708.0,1971.0
480,2192,2613.0,1956.0
481,2193,2532.0,1987.0
482,2193,1770.0,2062.0
483,2193,1724.0,2172.0
484,2198,2797.0,2303.0
485,2203,4095.0,2491.0
486,2205,3736.0,2638.0
487,2209,2249.0,2688.0
488,2211,1614.0,2678.0
489,2215,2195.0,2616.0
490,2215,2844.0,2520.0
491,2217,2328.0,2406.0
492,2219,1060.0,2280.0
493,2219,635.0,2165.0
494,2219,1515.0,2070.0
495,2227,2406.0,1991.0
496,2230,2172.0,1942.0
497,2230,1132.0,1912.0
498,2230,807.0,1894.0
499,2234,1661.0,1877.0
500,2234,2458.0,1846.0
501,2234,2134.0,1820.0
502,2240,1061.0,1800.0
503,2240,745.0,1791.0
504,2245,1612.0,1783.0
505,2248,2421.0,1765.0
506,2248,2106.0,1751.0
507,2252,1042.0,1742.0
508,2253,742.0,1743.0
509,2253,1619.0,1745.0
510,2261,2441.0,1739.0
511,2263,2136.0,1738.0
512,2263,1079.0,1740.0
513,2268,757.0,1744.0
514,2271,1626.0,1748.0
515,2271,2431.0,1742.0
516,2271,2131.0,1742.0
517,2278,1078.0,1744.0
518,2280,766.0,1749.0
519,2281,1638.0,1756.0
520,2282,2448.0,1753.0
521,2286,2139.0,1755.0
522,2288,1094.0,1758.0
523,2290,793.0,1766.0
524,2293,1670.0,1776.0
525,2293,2489.0,1779.0
526,2295,2194.0,1787.0
527,2299,1151.0,1796.0
528,2302,841.0,1806.0
529,2302,1715.0,1818.0
530,2302,2521.0,1820.0
531,2304,2225.0,1828.0
532,2304,1182.0,1836.0
533,2304,897.0,1849.0
534,2304,1785.0,1866.0
535,2304,2609.0,1876.0
536,2304,2318.0,1892.0
537,2306,1291.0,1908.0
538,2306,1009.0,1928.0
539,2306,1909.0,1953.0
540,2306,2754.0,1973.0
541,2308,2458.0,1997.0
542,2308,1421.0,2018.0
543,2308,1132.0,2040.0
544,2308,1987.0,2059.0
545,2312,2794.0,2068.0
546,2312,2455.0,2075.0
547,2313,1371.0,2073.0
548,2313,1027.0,2067.0
549,2313,1843.0,2055.0
550,2314,2599.0,2030.0
551,2314,2234.0,2005.0
552,2314,1135.0,1975.0
553,2314,780.0,1942.0
554,2321,1611.0,1911.0
555,2323,2368.0,1872.0
556,2323,2033.0,1840.0
557,2323,945.0,1806.0
558,2323,617.0,1776.0
559,2332,1477.0,1752.0
560,2339,2280.0,1727.0
561,2344,1966.0,1711.0
562,2344,894.0,1693.0
563,2352,588.0,1679.0
564,2352,1459.0,1671.0
565,2354,2267.0,1660.0
566,2355,1965.0,1658.0
567,2361,922.0,1656.0
568,2365,650.0,1661.0
569,2365,1542.0,1673.0
570,2367,2366.0,1681.0
571,2369,2062.0,1694.0
572,2370,1000.0,1702.0
573,2370,701.0,1710.0
574,2376,1573.0,1720.0
575,2377,2392.0,1725.0
576,2379,2088.0,1736.0
577,2384,1025.0,1742.0
578,2386,713.0,1746.0
579,2386,1579.0,1752.0
580,2390,2397.0,1754.0
581,2390,2114.0,1765.0
582,2397,1058.0,1773.0
583,2401,754.0,1780.0
584,2407,1627.0,1790.0
585,2410,2442.0,1794.0
586,2410,2145.0,1805.0
587,2415,1089.0,1811.0
588,2415,789.0,1819.0
589,2417,1669.0,1830.0
590,2419,2488.0,1837.0
591,2421,2195.0,1849.0
592,2421,1145.0,1859.0
593,2428,838.0,1867.0
594,2428,1706.0,1878.0
595,2428,2522.0,1882.0
596,2428,2222.0,1892.0
597,2434,1173.0,1899.0
598,2438,869.0,1907.0
599,2438,1735.0,1916.0
600,2438,2550.0,1919.0
601,2448,2243.0,1927.0
602,2451,1183.0,1930.0
603,2454,867.0,1932.0
604,2459,1727.0,1936.0
605,2459,2542.0,1935.0
606,2462,2238.0,1939.0
607,2462,1177.0,1939.0
608,2464,875.0,1941.0
609,2470,1742.0,1946.0
610,2470,2542.0,1944.0
611,2470,2236.0,1947.0
612,2470,1193.0,1949.0
613,2480,887.0,1952.0
614,2480,1761.0,1958.0
615,2484,2567.0,1959.0
616,2484,2267.0,1965.0
617,2491,1212.0,1968.0
618,2494,907.0,1971.0
619,2496,1781.0,1978.0
620,2497,2585.0,1978.0
621,2502,2278.0,1983.0
622,2502,1223.0,1985.0
623,2502,919.0,1987.0
624,2509,1792.0,1993.0
625,2513,2610.0,1996.0
626,2513,2291.0,2000.0
627,2518,1230.0,2001.0
628,2523,905.0,1998.0
629,2523,1769.0,1999.0
630,2528,2575.0,1994.0
631,2534,2288.0,1998.0
632,2534,1238.0,2000.0
633,2534,941.0,2004.0
634,2540,1816.0,2012.0
635,2540,2628.0,2014.0
636,2543,2322.0,2021.0
637,2544,1265.0,2024.0
638,2545,982.0,2031.0
639,2545,1850.0,2040.0
640,2551,2691.0,2048.0
641,2554,2412.0,2065.0
642,2558,1396.0,2083.0
643,2559,1103.0,2100.0
644,2560,1944.0,2114.0
645,2565,2764.0,2122.0
646,2565,2498.0,2141.0
647,2567,1470.0,2156.0
648,2567,1167.0,2171.0
649,2572,2018.0,2185.0
650,2577,2818.0,2191.0
651,2579,2478.0,2193.0
652,2583,1372.0,2182.0
653,2585,1014.0,2165.0
654,2585,1832.0,2147.0
655,2585,2620.0,2123.0
656,2595,2293.0,2103.0
657,2596,1228.0,2082.0
658,2597,916.0,2065.0
659,2601,1770.0,2053.0
660,2601,2565.0,2037.0
661,2601,2267.0,2028.0
662,2605,1203.0,2016.0
663,2606,889.0,2007.0
664,2609,1758.0,2003.0
665,2609,2579.0,1998.0
666,2609,2265.0,1996.0
667,2617,1202.0,1991.0
668,2618,887.0,1986.0
669,2623,1762.0,1987.0
670,2623,2574.0,1984.0
671,2626,2279.0,1987.0
672,2629,1222.0,1987.0
673,2634,892.0,1985.0
674,2634,1711.0,1978.0
675,2638,2467.0,1959.0
676,2638,2223.0,1957.0
677,2638,1369.0,1986.0
678,2649,1371.0,2063.0
679,2649,2512.0,2179.0
680,2656,3928.0,2378.0
681,2659,3796.0,2576.0
682,2660,2578.0,2712.0
683,2660,2151.0,2808.0
684,2663,2700.0,2831.0
685,2663,3323.0,2805.0
686,2663,2746.0,2737.0
687,2663,1485.0,2645.0
688,2667,960.0,2535.0
689,2670,1658.0,2416.0
690,2672,2424.0,2301.0
691,2672,2189.0,2220.0
692,2672,1215.0,2167.0
693,2679,954.0,2138.0
694,2679,1843.0,2123.0
695,2684,2651.0,2104.0
696,2684,2340.0,2088.0
697,2687,1269.0,2070.0
698,2692,949.0,2058.0
699,2700,1795.0,2049.0
700,2701,2600.0,2033.0
701,2707,2296.0,2023.0
702,2707,1249.0,2014.0
703,2711,943.0,2010.0
704,2721,1816.0,2013.0
705,2722,2643.0,2012.0
706,2726,2332.0,2012.0
707,2726,1286.0,2012.0
708,2730,973.0,2015.0
709,2732,1847.0,2022.0
710,2733,2667.0,2023.0
711,2734,2359.0,2027.0
712,2736,1299.0,2027.0
713,2736,991.0,2030.0
714,2736,1853.0,2035.0
715,2736,2663.0,2033.0
716,2742,2356.0,2035.0
717,2742,1308.0,2036.0
718,2748,1057.0,2048.0
719,2751,1879.0,2054.0
720,2756,2707.0,2057.0
721,2756,2406.0,2064.0
722,2766,1337.0,2065.0
723,2768,1050.0,2070.0
724,2768,1934.0,2081.0
725,2774,2756.0,2088.0
726,2774,2446.0,2096.0
727,2783,1405.0,2104.0
728,2785,1110.0,2112.0
729,2785,1979.0,2123.0
730,2785,2821.0,2133.0
731,2794,2530.0,2148.0
732,2794,1501.0,2162.0
733,2794,1216.0,2179.0
734,2801,2098.0,2198.0
735,2805,2948.0,2216.0
736,2812,2651.0,2237.0
737,2812,1620.0,2256.0
738,2816,1332.0,2275.0
739,2823,2196.0,2294.0
740,2828,3050.0,2312.0
741,2832,2713.0,2325.0
742,2833,1646.0,2332.0
743,2836,1304.0,2332.0
744,2845,2131.0,2328.0
745,2846,2905.0,2313.0
746,2851,2540.0,2295.0
747,2851,1432.0,2268.0
748,2857,1074.0,2238.0
749,2861,1881.0,2205.0
750,2864,2645.0,2165.0
751,2872,2291.0,2129.0
752,2872,1212.0,2092.0
753,2880,882.0,2059.0
754,2882,1725.0,2030.0
755,2888,2510.0,1998.0
756,2888,2186.0,1973.0
757,2888,1116.0,1948.0
758,2888,808.0,1928.0
759,2904,1680.0,1915.0
760,2907,2482.0,1899.0
761,2911,2176.0,1891.0
762,2911,1114.0,1881.0
763,2911,799.0,1872.0
764,2920,1670.0,1869.0
765,2925,2478.0,1861.0
766,2930,2176.0,1861.0
767,2936,1127.0,1860.0
768,2941,819.0,1859.0
769,2941,1681.0,1861.0
770,2941,2476.0,1856.0
771,2951,2160.0,1855.0
772,2954,1103.0,1851.0
773,2960,800.0,1849.0
774,2963,1666.0,1851.0
775,2967,2481.0,1849.0
776,2972,2178.0,1853.0
777,2974,1120.0,1854.0
778,2975,800.0,1853.0
779,2982,1668.0,1855.0
780,2985,2480.0,1853.0
781,2985,2175.0,1857.0
782,2993,1127.0,1859.0
783,2998,817.0,1860.0
784,3003,1681.0,1865.0
785,3009,2482.0,1862.0
786,3009,2181.0,1866.0
787,3014,1125.0,1867.0
788,3018,818.0,1868.0
789,3024,1680.0,1871.0
790,3029,2489.0,1870.0
791,3031,2185.0,1874.0
792,3035,1132.0,1875.0
793,3037,823.0,1876.0
794,3039,1678.0,1879.0
795,3045,2473.0,1874.0
796,3045,2167.0,1875.0
797,3051,1109.0,1873.0
798,3059,800.0,1871.0
799,3061,1671.0,1874.0
800,3067,2477.0,1872.0
801,3067,2139.0,1869.0
802,3075,1111.0,1869.0
803,3079,802.0,1869.0
804,3079,1663.0,1871.0
805,3088,2440.0,1864.0
806,3091,2124.0,1862.0
807,3091,1067.0,1856.0
808,3091,769.0,1853.0
809,3101,1637.0,1854.0
810,3101,2439.0,1850.0
811,3109,2139.0,1854.0
812,3113,1087.0,1854.0
813,3118,792.0,1856.0
814,3118,1665.0,1862.0
815,3123,2467.0,1863.0
816,3131,2163.0,1869.0
817,3134,1104.0,1871.0
818,3139,799.0,1872.0
819,3142,1685.0,1880.0
820,3142,2511.0,1885.0
821,3151,2228.0,1899.0
822,3153,1216.0,1916.0
823,3158,933.0,1933.0
824,3160,1793.0,1950.0
825,3160,2607.0,1961.0
826,3171,2331.0,1980.0
827,3171,1308.0,1998.0
828,3182,1007.0,2014.0
829,3182,1875.0,2031.0
830,3188,2680.0,2041.0
831,3192,2339.0,2048.0
832,3193,1252.0,2044.0
833,3193,912.0,2035.0
834,3203,1738.0,2024.0
835,3211,2506.0,2005.0
836,3213,2161.0,1986.0
837,3213,1084.0,1964.0
838,3219,774.0,1945.0
839,3219,1648.0,1934.0
840,3226,2447.0,1920.0
841,3229,2134.0,1913.0
842,3231,1065.0,1901.0
843,3236,738.0,1888.0
844,3236,1601.0,1880.0
845,3244,2400.0,1868.0
846,3248,2099.0,1864.0
847,3255,1033.0,1856.0
848,3257,717.0,1849.0
849,3262,1586.0,1846.0
850,3268,2395.0,1840.0
851,3272,2085.0,1840.0
852,3275,1029.0,1837.0
853,3277,715.0,1833.0
854,3281,1546.0,1828.0
855,3286,2299.0,1810.0
856,3290,2028.0,1806.0
857,3290,1117.0,1824.0
858,3296,1096.0,1887.0
859,3300,2258.0,1993.0
860,3307,3449.0,2146.0
861,3314,3314.0,2309.0
862,3314,2301.0,2449.0
863,3318,1965.0,2560.0
864,3328,2592.0,2610.0
865,3330,3210.0,2613.0
866,3333,2649.0,2574.0
867,3334,1425.0,2508.0
868,3338,898.0,2414.0
869,3344,1549.0,2302.0
870,3344,2264.0,2189.0
871,3349,1964.0,2100.0
872,3351,968.0,2033.0
873,3357,742.0,1993.0
874,3363,1649.0,1974.0
875,3364,2458.0,1955.0
876,3371,2140.0,1943.0
877,3371,1076.0,1926.0
878,3375,762.0,1911.0
879,3384,1630.0,1904.0
880,3390,2445.0,1896.0
881,3393,2141.0,1895.0
882,3395,1078.0,1888.0
883,3395,768.0,1882.0
884,3401,1648.0,1884.0
885,3407,2455.0,1882.0
886,3407,2163.0,1887.0
887,3413,1107.0,1888.0
888,3413,808.0,1891.0
889,3421,1681.0,1898.0
890,3426,2494.0,1900.0
891,3426,2194.0,1909.0
892,3434,1145.0,1913.0
893,3440,833.0,1916.0
894,3442,1694.0,1922.0
895,3442,2504.0,1922.0
896,3448,2212.0,1930.0
897,3453,1163.0,1934.0
898,3462,852.0,1938.0
899,3464,1730.0,1946.0
900,3466,2550.0,1951.0
901,3469,2250.0,1961.0
902,3474,1206.0,1967.0
903,3477,904.0,1974.0
904,3485,1777.0,1985.0
905,3488,2597.0,1991.0
906,3488,2298.0,2002.0
907,3495,1269.0,2013.0
908,3495,973.0,2024.0
909,3505,1851.0,2039.0
910,3508,2682.0,2051.0
911,3509,2387.0,2067.0
912,3511,1362.0,2082.0
913,3517,1086.0,2100.0
914,3517,1967.0,2121.0
915,3526,2800.0,2139.0
916,3527,2497.0,2159.0
917,3534,1467.0,2176.0
918,3537,1185.0,2194.0
919,3537,2054.0,2213.0
920,3548,2880.0,2228.0
921,3551,2559.0,2242.0
922,3551,1493.0,2248.0
923,3558,1135.0,2244.0
924,3563,1988.0,2242.0
925,3563,2788.0,2234.0
926,3568,2384.0,2215.0
927,3568,1278.0,2188.0
928,3579,923.0,2157.0
929,3579,1759.0,2129.0
930,3584,2519.0,2092.0
931,3590,2180.0,2062.0
932,3594,1095.0,2030.0
933,3594,765.0,2000.0
934,3601,1619.0,1975.0
935,3606,2410.0,1947.0
936,3610,2075.0,1925.0
937,3611,1004.0,1902.0
938,3617,699.0,1883.0
939,3621,1569.0,1871.0
940,3625,2375.0,1856.0
941,3634,2070.0,1850.0
942,3634,1007.0,1842.0
943,3634,704.0,1837.0
944,3641,1582.0,1836.0
945,3645,2390.0,1831.0
946,3649,2098.0,1836.0
947,3655,1044.0,1838.0
948,3662,741.0,1840.0
949,3663,1616.0,1847.0
950,3665,2427.0,1847.0
951,3667,2129.0,1855.0
952,3677,1076.0,1860.0
953,3677,762.0,1863.0
954,3684,1632.0,1869.0
955,3684,2429.0,1868.0
956,3689,2132.0,1873.0
957,3693,1079.0,1876.0
958,3693,778.0,1880.0
959,3701,1648.0,1886.0
960,3705,2455.0,1887.0
961,3708,2169.0,1896.0
962,3713,1127.0,1904.0
963,3720,823.0,1911.0
964,3723,1698.0,1921.0
965,3728,2504.0,1925.0
966,3730,2201.0,1934.0
967,3731,1153.0,1940.0
968,3736,860.0,1947.0
969,3739,1755.0,1962.0
970,3745,2557.0,1968.0
971,3745,2259.0,1980.0
972,3751,1207.0,1987.0
973,3760,894.0,1993.0
974,3760,1762.0,2000.0
975,3768,2565.0,2001.0
976,3768,2264.0,2008.0
977,3768,1203.0,2010.0
978,3776,888.0,2011.0
979,3776,1751.0,2013.0
980,3787,2554.0,2010.0
981,3787,2246.0,2012.0
982,3796,1188.0,2011.0
983,3797,879.0,2010.0
984,3801,1749.0,2012.0
985,3808,2545.0,2008.0
986,3813,2240.0,2010.0
987,3814,1183.0,2008.0
988,3818,878.0,2007.0
989,3818,1744.0,2010.0
990,3818,2553.0,2007.0
991,3828,2243.0,2010.0
992,3834,1186.0,2009.0
993,3839,882.0,2009.0
994,3839,1759.0,2014.0
995,3844,2563.0,2012.0
996,3849,2254.0,2016.0
997,3851,1200.0,2017.0
998,3857,884.0,2016.0
999,3865,1755.0,2019.0
1000,3868,2556.0,2016.0
1001,3870,2258.0,2020.0
1002,3870,1201.0,2020.0
1003,3877,894.0,2020.0
1004,3882,1792.0,2029.0
1005,3884,2574.0,2027.0
1006,3891,2280.0,2033.0
1007,3895,1256.0,2041.0
1008,3901,973.0,2051.0
1009,3904,1879.0,2069.0
1010,3906,2709.0,2084.0
1011,3908,2401.0,2101.0
1012,3912,1359.0,2115.0
1013,3922,1111.0,2136.0
1014,3923,1990.0,2158.0
1015,3928,2815.0,2175.0
1016,3933,2496.0,2193.0
1017,3933,1434.0,2203.0
1018,3938,1118.0,2209.0
1019,3938,1944.0,2209.0
1020,3943,2702.0,2197.0
1021,3948,2328.0,2181.0
1022,3953,1239.0,2158.0
1023,3957,911.0,2135.0
1024,3965,1770.0,2116.0
1025,3966,2557.0,2094.0
1026,3972,2249.0,2081.0
1027,3974,1193.0,2068.0
1028,3977,890.0,2057.0
1029,3985,1756.0,2050.0
1030,3990,2542.0,2037.0
1031,3995,2220.0,2030.0
1032,3995,1162.0,2021.0
1033,3995,868.0,2014.0
1034,4002,1738.0,2012.0
1035,4006,2539.0,2005.0
1036,4009,2225.0,2005.0
1037,4009,1169.0,2002.0
1038,4017,874.0,2000.0
1039,4024,1741.0,2001.0
1040,4026,2536.0,1996.0
1041,4031,2190.0,1992.0
1042,4034,1079.0,1976.0
1043,4037,816.0,1969.0
1044,4037,1882.0,1999.0
1045,4051,3021.0,2075.0
1046,4054,3024.0,2198.0
1047,4058,2194.0,2340.0
1048,4058,2116.0,2499.0
1049,4063,3180.0,2665.0
1050,4067,4095.0,2813.0
1051,4068,3393.0,2872.0
1052,4068,1947.0,2856.0
1053,4081,1432.0,2805.0
1054,4082,2093.0,2718.0
1055,4084,2677.0,2596.0
1056,4089,2197.0,2476.0
1057,4096,1110.0,2377.0
1058,4098,880.0,2306.0
1059,4103,1842.0,2258.0
1060,4105,2704.0,2222.0
1061,4110,2404.0,2207.0
1062,4117,1343.0,2198.0
1063,4117,1024.0,2185.0
1064,4121,1883.0,2168.0
1065,4124,2682.0,2146.0
1066,4131,2369.0,2138.0
1067,4134,1313.0,2134.0
1068,4134,1024.0,2131.0
1069,4141,1872.0,2122.0
1070,4141,2689.0,2111.0
1071,4152,2378.0,2111.0
1072,4157,1317.0,2111.0
1073,4161,1013.0,2110.0
1074,4162,1880.0,2107.0
1075,4164,2691.0,2099.0
1076,4172,2380.0,2101.0
1077,4172,1326.0,2103.0
1078,4172,1024.0,2105.0
1079,4182,1893.0,2105.0
1080,4184,2704.0,2101.0
1081,4190,2397.0,2105.0
1082,4193,1353.0,2110.0
1083,4193,1053.0,2115.0
1084,4203,1913.0,2117.0
1085,4208,2734.0,2116.0
1086,4209,2426.0,2123.0
1087,4215,1388.0,2130.0
1088,4218,1101.0,2138.0
1089,4224,1978.0,2148.0
1090,4226,2803.0,2154.0
1091,4229,2499.0,2166.0
1092,4235,1454.0,2176.0
1093,4239,1172.0,2188.0
1094,4243,2064.0,2203.0
1095,4244,2874.0,2212.0
1096,4251,2556.0,2223.0
1097,4254,1529.0,2236.0
1098,4260,1253.0,2250.0
1099,4260,2138.0,2266.0
1100,4268,2981.0,2281.0
1101,4268,2661.0,2297.0
1102,4278,1629.0,2313.0
1103,4279,1350.0,2330.0
1104,4282,2244.0,2349.0
1105,4288,3132.0,2374.0
1106,4289,2795.0,2396.0
1107,4294,1738.0,2412.0
1108,4304,1430.0,2424.0
1109,4306,2265.0,2429.0
1110,4308,3072.0,2428.0
1111,4309,2682.0,2418.0
1112,4312,1566.0,2399.0
1113,4318,1209.0,2373.0
1114,4318,2021.0,2342.0
1115,4318,2787.0,2304.0
1116,4327,2410.0,2268.0
1117,4337,1309.0,2228.0
1118,4338,955.0,2187.0
1119,4340,1792.0,2148.0
1120,4340,2559.0,2104.0
1121,4349,2247.0,2074.0
1122,4351,1183.0,2046.0
1123,4359,865.0,2021.0
1124,4359,1728.0,2001.0
1125,4369,2532.0,1980.0
1126,4370,2221.0,1968.0
1127,4373,1165.0,1956.0
1128,4378,863.0,1947.0
1129,4379,1741.0,1944.0
1130,4384,2559.0,1938.0
1131,4394,2236.0,1937.0
1132,4396,1180.0,1934.0
1133,4399,874.0,1932.0
1134,4401,1755.0,1934.0
1135,4402,2564.0,1932.0
1136,4410,2263.0,1937.0
1137,4410,1220.0,1941.0
1138,4420,926.0,1947.0
1139,4420,1799.0,1955.0
1140,4426,2611.0,1958.0
1141,4431,2286.0,1963.0
1142,4431,1212.0,1962.0
1143,4436,900.0,1960.0
1144,4441,1765.0,1960.0
1145,4451,2566.0,1954.0
1146,4451,2265.0,1957.0
1147,4455,1220.0,1958.0
1148,4462,921.0,1961.0
1149,4465,1798.0,1967.0
1150,4469,2609.0,1968.0
1151,4470,2292.0,1973.0
1152,4475,1246.0,1977.0
1153,4475,952.0,1982.0
1154,4483,1827.0,1989.0
1155,4484,2642.0,1993.0
1156,4484,2339.0,2002.0
1157,4493,1291.0,2009.0
1158,4495,982.0,2013.0
1159,4503,1861.0,2022.0
1160,4505,2670.0,2024.0
1161,4510,2351.0,2030.0
1162,4517,1305.0,2034.0
1163,4521,1002.0,2038.0
1164,4522,1874.0,2044.0
1165,4528,2678.0,2044.0
1166,4528,2348.0,2046.0
1167,4537,1271.0,2042.0
1168,4539,955.0,2036.0
1169,4543,1834.0,2035.0
1170,4545,2642.0,2030.0
1171,4551,2324.0,2030.0
1172,4553,1261.0,2027.0
1173,4556,952.0,2023.0
1174,4556,1818.0,2022.0
1175,4567,2625.0,2017.0
1176,4570,2325.0,2019.0
1177,4577,1267.0,2019.0
1178,4577,966.0,2019.0
1179,4577,1836.0,2022.0
1180,4588,2646.0,2021.0
1181,4588,2329.0,2024.0
1182,4598,1272.0,2023.0
1183,4598,961.0,2022.0
1184,4601,1821.0,2023.0
1185,4606,2621.0,2017.0
1186,4610,2299.0,2015.0
1187,4613,1247.0,2012.0
1188,4616,939.0,2009.0
1189,4622,1802.0,2008.0
1190,4629,2609.0,2003.0
1191,4629,2297.0,2004.0
1192,4636,1250.0,2003.0
1193,4636,955.0,2005.0
1194,4640,1830.0,2010.0
1195,4645,2633.0,2009.0
1196,4651,2317.0,2013.0
1197,4651,1269.0,2014.0
1198,4659,966.0,2016.0
1199,4664,1832.0,2019.0
1200,4668,2644.0,2019.0
1201,4671,2333.0,2024.0
1202,4671,1276.0,2024.0
1203,4678,973.0,2025.0
1204,4681,1846.0,2030.0
1205,4684,2662.0,2031.0
1206,4688,2352.0,2037.0
1207,4692,1320.0,2043.0
1208,4702,1063.0,2056.0
1209,4703,1957.0,2074.0
1210,4707,2779.0,2088.0
1211,4713,2440.0,2099.0
1212,4713,1394.0,2108.0
1213,4717,1128.0,2121.0
1214,4723,2012.0,2136.0
1215,4728,2824.0,2146.0
1216,4728,2499.0,2157.0
1217,4735,1427.0,2162.0
1218,4737,1096.0,2159.0
1219,4737,1921.0,2151.0
1220,4744,2688.0,2134.0
1221,4751,2323.0,2116.0
1222,4754,1253.0,2096.0
1223,4757,941.0,2077.0
1224,4765,1804.0,2063.0
1225,4767,2602.0,2046.0
1226,4768,2276.0,2035.0
1227,4776,1225.0,2025.0
1228,4776,908.0,2013.0
1229,4777,1773.0,2005.0
1230,4790,2559.0,1991.0
1231,4790,2253.0,1987.0
1232,4790,1187.0,1978.0
1233,4798,886.0,1971.0
1234,4801,1758.0,1968.0
1235,4806,2551.0,1960.0
1236,4810,2246.0,1961.0
1237,4810,1187.0,1957.0
1238,4822,887.0,1954.0
1239,4827,1760.0,1956.0
1240,4831,2546.0,1949.0
1241,4834,2183.0,1941.0
1242,4837,1077.0,1923.0
1243,4837,829.0,1917.0
1244,4846,1912.0,1950.0
1245,4848,3063.0,2031.0
1246,4853,3065.0,2158.0
1247,4854,2198.0,2298.0
1248,4858,2106.0,2453.0
1249,4863,3112.0,2604.0
1250,4869,4095.0,2751.0
1251,4871,3226.0,2781.0
1252,4873,1844.0,2754.0
1253,4879,1366.0,2699.0
1254,4879,2031.0,2607.0
1255,4885,2613.0,2483.0
1256,4894,2129.0,2363.0
1257,4896,1042.0,2263.0
1258,4896,797.0,2188.0
1259,4901,1759.0,2135.0
1260,4908,2625.0,2097.0
1261,4913,2333.0,2082.0
1262,4916,1265.0,2073.0
1263,4917,944.0,2060.0
1264,4920,1801.0,2041.0
1265,4924,2601.0,2017.0
1266,4928,2276.0,2007.0
1267,4931,1218.0,2002.0
1268,4937,916.0,1995.0
1269,4943,1801.0,1989.0
1270,4944,2612.0,1978.0
1271,4952,2288.0,1978.0
1272,4953,1226.0,1978.0
1273,4965,924.0,1978.0
1274,4968,1805.0,1976.0
1275,4973,2626.0,1971.0
1276,4973,2299.0,1974.0
1277,4978,1248.0,1979.0
1278,4978,945.0,1982.0
1279,4978,1806.0,1980.0
1280,4985,2614.0,1974.0
1281,4987,2286.0,1975.0
1282,4987,1234.0,1976.0
1283,4994,944.0,1979.0
1284,5001,1820.0,1981.0
1285,5005,2639.0,1980.0
1286,5010,2315.0,1985.0
1287,5017,1261.0,1990.0
1288,5020,968.0,1994.0
1289,5022,1851.0,1999.0
1290,5024,2668.0,2001.0
1291,5027,2368.0,2012.0
1292,5036,1328.0,2023.0
1293,5036,1046.0,2035.0
1294,5041,1920.0,2045.0
1295,5041,2751.0,2054.0
1296,5050,2459.0,2071.0
1297,5054,1424.0,2088.0
1298,5057,1143.0,2105.0
1299,5063,2014.0,2120.0
1300,5068,2845.0,2132.0
1301,5072,2535.0,2148.0
1302,5075,1513.0,2166.0
1303,5084,1247.0,2186.0
1304,5084,2141.0,2208.0
1305,5088,2990.0,2229.0
1306,5088,2675.0,2252.0
1307,5088,1630.0,2271.0
1308,5088,1332.0,2287.0
1309,5104,2180.0,2297.0
1310,5104,2991.0,2302.0
1311,5110,2624.0,2302.0
1312,5110,1522.0,2292.0
1313,5122,1173.0,2275.0
1314,5126,1973.0,2250.0
1315,5130,2727.0,2216.0
1316,5130,2355.0,2183.0
1317,5134,1255.0,2145.0
1318,5138,930.0,2111.0
1319,5141,1753.0,2076.0
1320,5141,2518.0,2036.0
1321,5152,2190.0,2006.0
1322,5152,1123.0,1977.0
1323,5152,808.0,1950.0
1324,5152,1670.0,1930.0
1325,5163,2466.0,1908.0
1326,5168,2154.0,1895.0
1327,5173,1095.0,1881.0
1328,5175,785.0,1869.0
1329,5183,1654.0,1862.0
1330,5187,2450.0,1850.0
1331,5192,2144.0,1847.0
1332,5198,1084.0,1841.0
1333,5201,779.0,1836.0
1334,5203,1654.0,1835.0
1335,5203,2454.0,1830.0
1336,5214,2149.0,1832.0
1337,5214,1083.0,1830.0
1338,5218,754.0,1823.0
1339,5224,1616.0,1820.0
1340,5225,2417.0,1812.0
1341,5228,2103.0,1810.0
1342,5235,1034.0,1804.0
1343,5239,732.0,1799.0
1344,5244,1615.0,1801.0
1345,5245,2417.0,1797.0
1346,5251,2098.0,1798.0
1347,5251,1031.0,1795.0
1348,5256,733.0,1794.0
1349,5260,1609.0,1796.0
1350,5267,2414.0,1794.0
1351,5271,2112.0,1799.0
1352,5278,1055.0,1801.0
1353,5278,760.0,1804.0
1354,5278,1633.0,1810.0
1355,5284,2437.0,1811.0
1356,5290,2127.0,1817.0
1357,5292,1079.0,1821.0
1358,5298,781.0,1825.0
1359,5300,1654.0,1832.0
1360,5300,2454.0,1833.0
1361,5311,2134.0,1837.0
1362,5311,1071.0,1837.0
1363,5311,759.0,1836.0
1364,5326,1635.0,1838.0
1365,5331,2441.0,1836.0
1366,5333,2124.0,1839.0
1367,5334,1049.0,1836.0
1368,5337,738.0,1832.0
1369,5339,1612.0,1832.0
1370,5349,2410.0,1826.0
1371,5350,2110.0,1829.0
1372,5354,1044.0,1828.0
1373,5356,733.0,1826.0
1374,5360,1611.0,1828.0
1375,5362,2410.0,1824.0
1376,5369,2097.0,1826.0
1377,5374,1043.0,1826.0
1378,5379,733.0,1825.0
1379,5381,1607.0,1828.0
1380,5391,2404.0,1824.0
1381,5391,2089.0,1825.0
1382,5391,1016.0,1821.0
1383,5391,707.0,1818.0
1384,5403,1585.0,1819.0
1385,5405,2380.0,1813.0
1386,5405,2067.0,1814.0
1387,5415,1000.0,1810.0
1388,5420,697.0,1808.0
1389,5422,1573.0,1810.0
1390,5422,2375.0,1806.0
1391,5422,2079.0,1811.0
1392,5433,1040.0,1816.0
1393,5435,775.0,1827.0
1394,5443,1682.0,1845.0
1395,5443,2513.0,1860.0
1396,5451,2224.0,1882.0
1397,5454,1167.0,1898.0
1398,5458,870.0,1912.0
1399,5460,1790.0,1935.0
1400,5468,2631.0,1955.0
1401,5468,2325.0,1977.0
1402,5473,1260.0,1993.0
1403,5476,944.0,2005.0
1404,5482,1795.0,2013.0
1405,5484,2557.0,2006.0
1406,5484,2214.0,2000.0
1407,5484,1119.0,1987.0
1408,5497,777.0,1970.0
1409,5501,1618.0,1953.0
1410,5505,2398.0,1929.0
1411,5516,2079.0,1913.0
1412,5517,1005.0,1896.0
1413,5520,697.0,1881.0
1414,5522,1574.0,1873.0
1415,5526,2374.0,1860.0
1416,5530,2044.0,1851.0
1417,5534,972.0,1840.0
1418,5536,668.0,1831.0
1419,5537,1539.0,1827.0
1420,5547,2356.0,1820.0
1421,5552,2040.0,1819.0
1422,5552,975.0,1815.0
1423,5557,690.0,1816.0
1424,5563,1569.0,1820.0
1425,5569,2373.0,1818.0
1426,5569,2063.0,1823.0
1427,5575,996.0,1823.0
1428,5577,651.0,1817.0
1429,5581,1486.0,1808.0
1430,5584,2377.0,1810.0
1431,5589,2295.0,1855.0
1432,5593,1522.0,1938.0
1433,5598,1524.0,2062.0
1434,5601,2612.0,2208.0
1435,5601,3997.0,2424.0
1436,5611,3635.0,2595.0
1437,5616,2225.0,2677.0
1438,5618,1647.0,2702.0
1439,5620,2255.0,2674.0
1440,5625,2902.0,2607.0
1441,5627,2383.0,2517.0
1442,5634,1121.0,2411.0
1443,5642,649.0,2302.0
1444,5642,1491.0,2206.0
1445,5642,2363.0,2123.0
1446,5652,2139.0,2073.0
1447,5652,1136.0,2047.0
1448,5656,863.0,2040.0
1449,5661,1727.0,2034.0
1450,5666,2515.0,2013.0
1451,5671,2193.0,1996.0
1452,5672,1132.0,1984.0
1453,5681,828.0,1981.0
1454,5682,1699.0,1980.0
1455,5688,2494.0,1966.0
1456,5688,2189.0,1959.0
1457,5693,1149.0,1957.0
1458,5701,857.0,1963.0
1459,5703,1740.0,1971.0
1460,5707,2546.0,1970.0
1461,5711,2249.0,1974.0
1462,5714,1201.0,1979.0
1463,5720,904.0,1989.0
1464,5722,1786.0,2001.0
1465,5727,2605.0,2005.0
1466,5727,2292.0,2011.0
1467,5734,1243.0,2018.0
1468,5736,944.0,2027.0
1469,5736,1825.0,2038.0
1470,5744,2633.0,2041.0
1471,5745,2319.0,2047.0
1472,5755,1278.0,2053.0
1473,5755,989.0,2063.0
1474,5766,1878.0,2077.0
1475,5767,2700.0,2084.0
1476,5767,2393.0,2095.0
1477,5776,1348.0,2105.0
1478,5780,1064.0,2119.0
1479,5782,1942.0,2133.0
1480,5784,2767.0,2142.0
1481,5787,2451.0,2153.0
1482,5793,1421.0,2165.0
1483,5799,1140.0,2180.0
1484,5801,2027.0,2197.0
1485,5801,2860.0,2211.0
1486,5808,2551.0,2227.0
1487,5811,1525.0,2244.0
1488,5817,1260.0,2264.0
1489,5819,2145.0,2286.0
1490,5827,2983.0,2304.0
1491,5830,2664.0,2323.0
1492,5835,1625.0,2339.0
1493,5839,1340.0,2355.0
1494,5840,2207.0,2370.0
1495,5845,3029.0,2380.0
1496,5851,2660.0,2384.0
1497,5852,1566.0,2378.0
1498,5852,1218.0,2365.0
1499,5863,2026.0,2345.0
1500,5863,2776.0,2313.0
1501,5868,2392.0,2280.0
1502,5871,1287.0,2242.0
1503,5883,944.0,2203.0
1504,5884,1775.0,2166.0
1505,5886,2544.0,2125.0
1506,5886,2206.0,2092.0
1507,5892,1129.0,2059.0
1508,5892,809.0,2029.0
1509,5903,1677.0,2006.0
1510,5905,2474.0,1981.0
1511,5911,2158.0,1966.0
1512,5911,1104.0,1952.0
1513,5917,804.0,1941.0
1514,5923,1687.0,1936.0
1515,5923,2485.0,1927.0
1516,5930,2162.0,1923.0
1517,5930,1113.0,1919.0
1518,5936,833.0,1919.0
1519,5939,1710.0,1923.0
1520,5944,2514.0,1921.0
1521,5951,2199.0,1926.0
1522,5954,1141.0,1927.0
1523,5959,856.0,1930.0
1524,5965,1737.0,1937.0
1525,5969,2536.0,1938.0
1526,5969,2224.0,1945.0
1527,5976,1169.0,1948.0
1528,5978,879.0,1952.0
1529,5981,1760.0,1959.0
1530,5986,2551.0,1959.0
1531,5986,2232.0,1964.0
1532,5992,1185.0,1967.0
1533,5996,886.0,1969.0
1534,6006,1764.0,1974.0
1535,6010,2557.0,1973.0
1536,6011,2258.0,1980.0
1537,6015,1212.0,1985.0
1538,6018,927.0,1991.0
1539,6023,1797.0,1998.0
1540,6027,2606.0,2002.0
1541,6029,2286.0,2009.0
1542,6032,1241.0,2014.0
1543,6037,946.0,2018.0
1544,6044,1821.0,2025.0
1545,6050,2624.0,2027.0
1546,6051,2300.0,2033.0
1547,6055,1240.0,2033.0
1548,6058,947.0,2034.0
1549,6060,1823.0,2039.0
1550,6065,2633.0,2040.0
1551,6071,2300.0,2043.0
1552,6073,1247.0,2043.0
1553,6077,946.0,2042.0
1554,6081,1812.0,2044.0
1555,6087,2599.0,2038.0
1556,6093,2274.0,2037.0
1557,6101,1216.0,2032.0
1558,6105,914.0,2028.0
1559,6105,1794.0,2028.0
1560,6110,2603.0,2026.0
1561,6111,2283.0,2028.0
1562,6117,1226.0,2028.0
1563,6119,938.0,2028.0
1564,6127,1821.0,2034.0
1565,6132,2632.0,2035.0
1566,6134,2315.0,2042.0
1567,6137,1271.0,2047.0
1568,6138,983.0,2052.0
1569,6139,1868.0,2061.0
1570,6149,2667.0,2064.0
1571,6154,2340.0,2070.0
1572,6154,1291.0,2073.0
1573,6161,989.0,2075.0
1574,6162,1865.0,2079.0
1575,6167,2671.0,2079.0
1576,6171,2345.0,2083.0
1577,6175,1289.0,2084.0
1578,6177,999.0,2085.0
1579,6186,1861.0,2087.0
1580,6191,2658.0,2083.0
1581,6195,2349.0,2087.0
1582,6195,1307.0,2089.0
1583,6199,1017.0,2092.0
1584,6199,1888.0,2097.0
1585,6206,2700.0,2099.0
1586,6211,2381.0,2106.0
1587,6213,1346.0,2111.0
1588,6219,1066.0,2119.0
1589,6222,1937.0,2127.0
1590,6227,2735.0,2130.0
1591,6231,2409.0,2136.0
1592,6236,1362.0,2138.0
1593,6236,1074.0,2142.0
1594,6241,1947.0,2147.0
1595,6245,2754.0,2149.0
1596,6251,2437.0,2156.0
1597,6255,1393.0,2160.0
1598,6256,1102.0,2164.0
1599,6261,1975.0,2170.0
1600,6266,2789.0,2174.0
1601,6269,2478.0,2182.0
1602,6274,1417.0,2185.0
1603,6278,1111.0,2186.0
1604,6280,1975.0,2188.0
1605,6286,2782.0,2186.0
1606,6287,2465.0,2190.0
1607,6294,1420.0,2191.0
1608,6301,1118.0,2191.0
1609,6301,1986.0,2194.0
1610,6306,2779.0,2190.0
1611,6309,2456.0,2190.0
1612,6313,1414.0,2190.0
1613,6317,1134.0,2192.0
1614,6319,2024.0,2200.0
1615,6327,2820.0,2202.0
1616,6329,2496.0,2207.0
1617,6332,1448.0,2209.0
1618,6340,1170.0,2213.0
1619,6340,2046.0,2220.0
1620,6348,2854.0,2223.0
1621,6348,2533.0,2231.0
1622,6354,1492.0,2235.0
1623,6357,1209.0,2241.0
1624,6363,2101.0,2252.0
1625,6366,2947.0,2264.0
1626,6370,2656.0,2284.0
1627,6375,1654.0,2307.0
1628,6378,1371.0,2327.0
1629,6385,2227.0,2345.0
1630,6389,3059.0,2360.0
1631,6390,2747.0,2378.0
1632,6395,1708.0,2391.0
1633,6398,1404.0,2401.0
1634,6404,2251.0,2408.0
1635,6404,3063.0,2411.0
1636,6412,2699.0,2409.0
1637,6414,1613.0,2399.0
1638,6420,1281.0,2385.0
1639,6424,2120.0,2370.0
1640,6431,2916.0,2352.0
1641,6434,2571.0,2336.0
1642,6434,1498.0,2317.0
1643,6439,1182.0,2299.0
1644,6442,2035.0,2283.0
1645,6442,2840.0,2266.0
1646,6449,2506.0,2253.0
1647,6454,1449.0,2239.0
1648,6458,1141.0,2227.0
1649,6458,1996.0,2216.0
1650,6467,2801.0,2204.0
1651,6473,2486.0,2198.0
1652,6477,1424.0,2189.0
1653,6478,1115.0,2180.0
1654,6484,1980.0,2175.0
1655,6486,2789.0,2167.0
1656,6488,2465.0,2163.0
1657,6495,1415.0,2158.0
1658,6500,1116.0,2155.0
1659,6501,1953.0,2149.0
1660,6506,2702.0,2131.0
1661,6509,2369.0,2117.0
1662,6513,1446.0,2125.0
1663,6518,1406.0,2174.0
1664,6518,2585.0,2271.0
1665,6524,4086.0,2468.0
1666,6531,3916.0,2661.0
1667,6535,2700.0,2797.0
1668,6539,2388.0,2911.0
1669,6541,3070.0,2967.0
1670,6546,3859.0,2996.0
1671,6549,3032.0,2935.0
1672,6555,1746.0,2851.0
1673,6556,1214.0,2742.0
1674,6561,1879.0,2610.0
1675,6563,2601.0,2474.0
1676,6567,2307.0,2373.0
1677,6573,1341.0,2310.0
1678,6578,1117.0,2275.0
1679,6579,2006.0,2247.0
1680,6587,2810.0,2217.0
1681,6590,2463.0,2193.0
1682,6597,1388.0,2172.0
1683,6599,1079.0,2154.0
1684,6606,1930.0,2134.0
1685,6607,2729.0,2110.0
1686,6608,2404.0,2095.0
1687,6618,1355.0,2085.0
1688,6618,1061.0,2078.0
1689,6618,1917.0,2070.0
1690,6618,2724.0,2057.0
1691,6630,2394.0,2051.0
1692,6631,1346.0,2046.0
1693,6636,1059.0,2045.0
1694,6642,1934.0,2046.0
1695,6645,2746.0,2042.0
1696,6649,2417.0,2043.0
1697,6653,1371.0,2044.0
1698,6657,1077.0,2047.0
1699,6665,1928.0,2046.0
1700,6668,2720.0,2039.0
1701,6670,2390.0,2036.0
1702,6670,1336.0,2032.0
1703,6682,1046.0,2030.0
1704,6684,1932.0,2033.0
1705,6684,2750.0,2033.0
1706,6690,2438.0,2040.0
1707,6691,1388.0,2044.0
1708,6700,1094.0,2049.0
1709,6702,1963.0,2055.0
1710,6702,2792.0,2058.0
1711,6711,2478.0,2067.0
1712,6719,1448.0,2077.0
1713,6723,1157.0,2087.0
1714,6727,2032.0,2098.0
1715,6730,2853.0,2105.0
1716,6734,2554.0,2119.0
1717,6743,1527.0,2132.0
1718,6743,1259.0,2149.0
1719,6749,2143.0,2168.0
1720,6751,2991.0,2187.0
1721,6753,2673.0,2206.0
1722,6753,1636.0,2223.0
1723,6753,1352.0,2240.0
1724,6763,2239.0,2258.0
1725,6763,3096.0,2278.0
1726,6768,2746.0,2293.0
1727,6774,1677.0,2301.0
1728,6777,1363.0,2305.0
1729,6785,2214.0,2307.0
1730,6787,2999.0,2299.0
1731,6791,2609.0,2285.0
1732,6794,1502.0,2263.0
1733,6798,1164.0,2238.0
1734,6808,1988.0,2210.0
1735,6810,2755.0,2176.0
1736,6815,2381.0,2143.0
1737,6815,1275.0,2106.0
1738,6815,927.0,2067.0
1739,6821,1773.0,2032.0
1740,6825,2545.0,1992.0
1741,6829,2202.0,1960.0
1742,6830,1130.0,1930.0
1743,6840,812.0,1903.0
1744,6845,1678.0,1881.0
1745,6847,2472.0,1856.0
1746,6851,2159.0,1842.0
1747,6855,1094.0,1828.0
1748,6857,793.0,1816.0
1749,6866,1659.0,1808.0
1750,6867,2451.0,1794.0
1751,6872,2141.0,1790.0
1752,6873,1086.0,1784.0
1753,6877,787.0,1780.0
1754,6882,1658.0,1780.0
1755,6886,2463.0,1775.0
1756,6888,2151.0,1777.0
1757,6893,1083.0,1774.0
1758,6895,773.0,1771.0
1759,6908,1649.0,1772.0
1760,6909,2440.0,1766.0
1761,6912,2126.0,1766.0
1762,6916,1068.0,1764.0
1763,6921,772.0,1763.0
1764,6923,1649.0,1767.0
1765,6927,2454.0,1765.0
1766,6930,2142.0,1770.0
1767,6934,1084.0,1771.0
1768,6934,781.0,1772.0
1769,6940,1664.0,1778.0
1770,6944,2471.0,1778.0
1771,6952,2159.0,1785.0
1772,6953,1098.0,1787.0
1773,6960,794.0,1789.0
1774,6960,1671.0,1794.0
1775,6967,2464.0,1792.0
1776,6970,2156.0,1796.0
1777,6984,1104.0,1799.0
1778,6990,803.0,1801.0
1779,6992,1670.0,1805.0
1780,6993,2473.0,1803.0
1781,6997,2168.0,1809.0
1782,6997,1106.0,1810.0
1783,6997,792.0,1810.0
1784,7003,1663.0,1812.0
1785,7007,2446.0,1806.0
1786,7012,2133.0,1806.0
1787,7017,1083.0,1804.0
1788,7020,781.0,1804.0
1789,7021,1657.0,1807.0
1790,7026,2446.0,1803.0
1791,7029,2118.0,1802.0
1792,7034,1046.0,1796.0
1793,7042,751.0,1793.0
1794,7042,1642.0,1796.0
1795,7047,2440.0,1794.0
1796,7052,2121.0,1796.0
1797,7053,1050.0,1794.0
1798,7057,813.0,1803.0
1799,7062,1624.0,1802.0
1800,7068,2421.0,1797.0
1801,7068,2111.0,1799.0
1802,7073,1050.0,1796.0
1803,7077,747.0,1794.0
1804,7081,1624.0,1796.0
1805,7087,2422.0,1793.0
1806,7089,2096.0,1794.0
1807,7095,1034.0,1791.0
1808,7101,738.0,1789.0
1809,7105,1605.0,1790.0
1810,7105,2395.0,1784.0
1811,7108,2084.0,1786.0
1812,7114,1017.0,1783.0
1813,7120,725.0,1781.0
1814,7123,1614.0,1786.0
1815,7123,2416.0,1785.0
1816,7129,2100.0,1791.0
1817,7132,1038.0,1792.0
1818,7139,732.0,1791.0
1819,7142,1597.0,1792.0
1820,7147,2390.0,1788.0
1821,7155,2079.0,1790.0
1822,7159,1026.0,1790.0
1823,7163,736.0,1791.0
1824,7165,1633.0,1800.0
1825,7168,2454.0,1806.0
1826,7171,2176.0,1823.0
1827,7171,1155.0,1840.0
1828,7178,870.0,1857.0
1829,7182,1735.0,1873.0
1830,7186,2550.0,1885.0
1831,7189,2252.0,1902.0
1832,7193,1211.0,1915.0
1833,7195,915.0,1927.0
1834,7201,1788.0,1941.0
1835,7209,2558.0,1943.0
1836,7210,2220.0,1945.0
1837,7212,1132.0,1937.0
1838,7220,802.0,1926.0
1839,7220,1641.0,1914.0
1840,7228,2421.0,1897.0
1841,7231,2096.0,1885.0
1842,7235,1012.0,1867.0
1843,7237,704.0,1852.0
1844,7241,1567.0,1841.0
1845,7245,2371.0,1828.0
1846,7247,2071.0,1825.0
1847,7254,1034.0,1823.0
1848,7259,724.0,1820.0
1849,7262,1577.0,1818.0
1850,7266,2362.0,1810.0
1851,7274,2049.0,1808.0
1852,7274,983.0,1800.0
1853,7280,684.0,1795.0
1854,7284,1554.0,1795.0
1855,7289,2350.0,1790.0
1856,7292,2046.0,1791.0
1857,7293,981.0,1788.0
1858,7298,681.0,1786.0
1859,7300,1514.0,1782.0
1860,7305,2264.0,1765.0
1861,7314,1932.0,1753.0
1862,7317,1004.0,1761.0
1863,7317,962.0,1811.0
1864,7321,2132.0,1907.0
1865,7326,3260.0,2041.0
1866,7331,3134.0,2192.0
1867,7334,2199.0,2336.0
1868,7338,1929.0,2458.0
1869,7338,2584.0,2523.0
1870,7345,3158.0,2533.0
1871,7349,2591.0,2502.0
1872,7355,1380.0,2442.0
1873,7355,870.0,2353.0
1874,7361,1528.0,2246.0
1875,7363,2207.0,2134.0
1876,7369,1897.0,2047.0
1877,7373,899.0,1979.0
1878,7379,684.0,1937.0
1879,7382,1611.0,1918.0
1880,7387,2427.0,1906.0
1881,7389,2099.0,1898.0
1882,7397,1029.0,1883.0
1883,7399,720.0,1868.0
1884,7403,1593.0,1860.0
1885,7404,2408.0,1854.0
1886,7408,2097.0,1856.0
1887,7418,1038.0,1851.0
1888,7419,742.0,1847.0
1889,7422,1625.0,1850.0
1890,7429,2426.0,1850.0
1891,7431,2116.0,1856.0
1892,7436,1072.0,1858.0
1893,7441,781.0,1861.0
1894,7442,1680.0,1872.0
1895,7444,2483.0,1878.0
1896,7450,2170.0,1889.0
1897,7461,1112.0,1894.0
1898,7464,812.0,1897.0
1899,7466,1686.0,1903.0
1900,7467,2499.0,1907.0
1901,7467,2195.0,1918.0
1902,7473,1149.0,1924.0
1903,7477,855.0,1930.0
1904,7481,1731.0,1939.0
1905,7486,2550.0,1946.0
1906,7488,2258.0,1961.0
1907,7493,1219.0,1972.0
1908,7498,928.0,1983.0
1909,7501,1807.0,1997.0
1910,7501,2626.0,2007.0
1911,7510,2322.0,2022.0
1912,7514,1291.0,2035.0
1913,7517,1007.0,2048.0
1914,7522,1896.0,2066.0
1915,7524,2725.0,2081.0
1916,7529,2428.0,2101.0
1917,7537,1385.0,2116.0
1918,7539,1113.0,2134.0
1919,7542,1997.0,2154.0
1920,7545,2835.0,2172.0
1921,7554,2529.0,2193.0
1922,7554,1494.0,2210.0
1923,7558,1220.0,2229.0
1924,7564,2090.0,2248.0
1925,7566,2921.0,2263.0
1926,7572,2599.0,2279.0
1927,7574,1536.0,2288.0
1928,7576,1221.0,2293.0
1929,7586,2054.0,2293.0
1930,7588,2815.0,2281.0
1931,7591,2438.0,2264.0
1932,7594,1338.0,2240.0
1933,7601,971.0,2208.0
1934,7604,1798.0,2177.0
1935,7607,2557.0,2139.0
1936,7611,2214.0,2107.0
1937,7617,1126.0,2073.0
1938,7617,801.0,2040.0
1939,7624,1661.0,2015.0
1940,7626,2436.0,1985.0
1941,7632,2107.0,1962.0
1942,7635,1045.0,1940.0
1943,7636,747.0,1922.0
1944,7640,1616.0,1910.0
1945,7646,2422.0,1897.0
1946,7648,2115.0,1893.0
1947,7652,1057.0,1886.0
1948,7657,764.0,1882.0
1949,7663,1643.0,1883.0
1950,7668,2444.0,1879.0
1951,7670,2142.0,1884.0
1952,7673,1098.0,1886.0
1953,7678,794.0,1888.0
1954,7684,1673.0,1894.0
1955,7688,2476.0,1895.0
1956,7691,2170.0,1902.0
1957,7694,1113.0,1905.0
1958,7696,821.0,1909.0
1959,7704,1703.0,1917.0
1960,7710,2492.0,1917.0
1961,7710,2177.0,1923.0
1962,7713,1117.0,1923.0
1963,7718,825.0,1925.0
1964,7721,1702.0,1931.0
1965,7725,2511.0,1932.0
1966,7730,2205.0,1940.0
1967,7736,1166.0,1946.0
1968,7736,869.0,1952.0
1969,7742,1741.0,1960.0
1970,7746,2545.0,1963.0
1971,7748,2240.0,1972.0
1972,7753,1196.0,1978.0
1973,7756,906.0,1985.0
1974,7764,1792.0,1997.0
1975,7766,2588.0,2001.0
1976,7771,2279.0,2010.0
1977,7771,1240.0,2017.0
1978,7777,969.0,2028.0
1979,7781,1814.0,2036.0
1980,7786,2623.0,2040.0
1981,7791,2313.0,2048.0
1982,7794,1253.0,2051.0
1983,7798,948.0,2052.0
1984,7806,1819.0,2056.0
1985,7808,2630.0,2057.0
1986,7812,2314.0,2063.0
1987,7813,1264.0,2064.0
1988,7823,957.0,2065.0
1989,7828,1827.0,2068.0
1990,7830,2626.0,2066.0
1991,7831,2299.0,2067.0
1992,7835,1239.0,2064.0
1993,7835,937.0,2061.0
1994,7843,1808.0,2062.0
1995,7845,2610.0,2058.0
1996,7848,2290.0,2058.0
1997,7855,1240.0,2057.0
1998,7855,942.0,2056.0
1999,7862,1821.0,2060.0
2000,7866,2627.0,2059.0
2001,7868,2317.0,2064.0
2002,7876,1264.0,2066.0
2003,7884,966.0,2067.0
2004,7886,1825.0,2070.0
2005,7889,2630.0,2068.0
2006,7890,2315.0,2071.0
2007,7894,1260.0,2070.0
2008,7894,954.0,2069.0
2009,7902,1822.0,2071.0
2010,7907,2636.0,2070.0
2011,7911,2327.0,2074.0
2012,7915,1266.0,2074.0
2013,7918,969.0,2075.0
2014,7924,1843.0,2079.0
2015,7928,2663.0,2081.0
2016,7933,2348.0,2087.0
2017,7934,1296.0,2089.0
2018,7937,995.0,2092.0
2019,7940,1863.0,2097.0
2020,7949,2678.0,2098.0
2021,7950,2362.0,2103.0
2022,7954,1313.0,2105.0
2023,7956,1019.0,2109.0
2024,7962,1889.0,2115.0
2025,7967,2697.0,2116.0
2026,7970,2388.0,2122.0
2027,7980,1325.0,2123.0
2028,7981,1020.0,2123.0
2029,7986,1883.0,2125.0
2030,7989,2691.0,2123.0
2031,7991,2383.0,2126.0
2032,7998,1329.0,2127.0
2033,8000,1015.0,2125.0
2034,8002,1872.0,2125.0
2035,8007,2686.0,2121.0
2036,8008,2376.0,2123.0
2037,8015,1327.0,2123.0
2038,8017,1026.0,2124.0
2039,8022,1888.0,2126.0
2040,8025,2699.0,2125.0
2041,8034,2381.0,2127.0
2042,8040,1324.0,2125.0
2043,8040,1020.0,2124.0
2044,8047,1883.0,2125.0
2045,8050,2693.0,2122.0
2046,8052,2372.0,2123.0
2047,8054,1322.0,2121.0
2048,8060,1020.0,2121.0
2049,8068,1885.0,2122.0
2050,8071,2697.0,2120.0
2051,8074,2392.0,2124.0
2052,8075,1343.0,2126.0
2053,8076,1048.0,2129.0
2054,8080,1912.0,2134.0
2055,8087,2728.0,2135.0
2056,8088,2433.0,2143.0
2057,8094,1399.0,2150.0
2058,8100,1132.0,2163.0
2059,8101,2037.0,2183.0
2060,8110,2864.0,2198.0
2061,8112,2531.0,2213.0
2062,8116,1492.0,2224.0
2063,8118,1217.0,2238.0
2064,8124,2095.0,2253.0
2065,8129,2926.0,2266.0
2066,8130,2592.0,2278.0
2067,8133,1508.0,2280.0
2068,8138,1192.0,2279.0
2069,8141,2019.0,2273.0
2070,8144,2790.0,2257.0
2071,8149,2445.0,2244.0
2072,8153,1384.0,2229.0
2073,8162,1076.0,2215.0
2074,8166,1921.0,2202.0
2075,8168,2717.0,2185.0
2076,8175,2396.0,2175.0
2077,8177,1346.0,2165.0
2078,8179,1048.0,2157.0
2079,8188,1898.0,2150.0
2080,8192,2705.0,2140.0
2081,8196,2397.0,2138.0
2082,8197,1349.0,2134.0
2083,8200,1050.0,2132.0
2084,8201,1911.0,2131.0
2085,8206,2732.0,2130.0
2086,8208,2433.0,2135.0
2087,8211,1401.0,2140.0
2088,8219,1126.0,2149.0
2089,8225,1999.0,2161.0
2090,8230,2809.0,2168.0
2091,8235,2485.0,2176.0
2092,8237,1392.0,2172.0
2093,8242,1125.0,2175.0
2094,8248,2165.0,2209.0
2095,8255,3396.0,2305.0
2096,8256,3432.0,2447.0
2097,8257,2489.0,2586.0
2098,8258,2392.0,2741.0
2099,8261,3564.0,2922.0
2100,8264,4095.0,3013.0
2101,8267,3867.0,3108.0
2102,8273,2365.0,3108.0
2103,8277,1790.0,3062.0
2104,8282,2346.0,2967.0
2105,8286,2917.0,2836.0
2106,8291,2431.0,2700.0
2107,8298,1353.0,2585.0
2108,8301,1118.0,2504.0
2109,8304,2057.0,2450.0
2110,8306,2934.0,2412.0
2111,8310,2624.0,2387.0
2112,8314,1554.0,2365.0
2113,8317,1234.0,2345.0
2114,8320,2080.0,2324.0
2115,8327,2890.0,2300.0
2116,8330,2557.0,2283.0
2117,8335,1493.0,2267.0
2118,8335,1187.0,2255.0
2119,8344,2048.0,2244.0
2120,8347,2866.0,2230.0
2121,8348,2552.0,2223.0
2122,8356,1502.0,2219.0
2123,8357,1195.0,2216.0
2124,8361,2040.0,2210.0
2125,8368,2855.0,2200.0
2126,8372,2543.0,2197.0
2127,8375,1489.0,2194.0
2128,8379,1175.0,2190.0
2129,8379,2018.0,2185.0
2130,8385,2833.0,2176.0
2131,8391,2528.0,2174.0
2132,8393,1473.0,2171.0
2133,8396,1172.0,2170.0
2134,8401,2027.0,2169.0
2135,8405,2856.0,2167.0
2136,8411,2559.0,2172.0
2137,8414,1510.0,2175.0
2138,8417,1218.0,2181.0
2139,8427,2083.0,2188.0
2140,8433,2924.0,2194.0
2141,8436,2622.0,2204.0
2142,8438,1581.0,2213.0
2143,8440,1284.0,2223.0
2144,8442,2155.0,2234.0
2145,8447,2995.0,2244.0
2146,8448,2688.0,2256.0
2147,8453,1645.0,2266.0
2148,8456,1351.0,2277.0
2149,8460,2222.0,2290.0
2150,8469,3089.0,2305.0
2151,8469,2795.0,2323.0
2152,8476,1758.0,2340.0
2153,8476,1465.0,2357.0
2154,8482,2327.0,2373.0
2155,8489,3246.0,2399.0
2156,8491,2905.0,2418.0
2157,8496,1846.0,2432.0
2158,8501,1540.0,2445.0
2159,8501,2393.0,2455.0
2160,8504,3279.0,2470.0
2161,8510,2888.0,2471.0
2162,8513,1781.0,2463.0
2163,8516,1417.0,2448.0
2164,8520,2212.0,2424.0
2165,8523,2988.0,2391.0
2166,8530,2604.0,2354.0
2167,8532,1479.0,2312.0
2168,8538,1112.0,2269.0
2169,8548,1920.0,2224.0
2170,8548,2683.0,2172.0
2171,8555,2348.0,2129.0
2172,8557,1272.0,2089.0
2173,8562,927.0,2052.0
2174,8562,1770.0,2020.0
2175,8564,2556.0,1983.0
2176,8569,2248.0,1956.0
2177,8573,1177.0,1931.0
2178,8575,850.0,1909.0
2179,8583,1705.0,1892.0
2180,8584,2513.0,1871.0
2181,8590,2215.0,1860.0
2182,8594,1151.0,1848.0
2183,8598,829.0,1838.0
2184,8603,1686.0,1831.0
2185,8612,2497.0,1820.0
2186,8614,2201.0,1817.0
2187,8621,1144.0,1812.0
2188,8624,833.0,1810.0
2189,8630,1696.0,1811.0
2190,8632,2501.0,1806.0
2191,8632,2202.0,1807.0
2192,8634,1134.0,1803.0
2193,8638,807.0,1800.0
2194,8643,1671.0,1799.0
2195,8648,2488.0,1795.0
2196,8649,2202.0,1798.0
2197,8654,1147.0,1800.0
2198,8659,837.0,1803.0
2199,8663,1694.0,1807.0
2200,8667,2513.0,1807.0
2201,8668,2243.0,1817.0
2202,8676,1194.0,1824.0
2203,8676,881.0,1831.0
2204,8680,1738.0,1840.0
2205,8682,2548.0,1841.0
2206,8689,2260.0,1849.0
2207,8692,1208.0,1853.0
2208,8705,906.0,1860.0
2209,8709,1777.0,1871.0
2210,8711,2574.0,1873.0
2211,8714,2279.0,1879.0
2212,8724,1212.0,1880.0
2213,8731,892.0,1880.0
2214,8733,1751.0,1884.0
2215,8734,2558.0,1881.0
2216,8742,2266.0,1884.0
2217,8742,1187.0,1880.0
2218,8742,848.0,1874.0
2219,8747,1694.0,1869.0
2220,8752,2502.0,1860.0
2221,8754,2203.0,1856.0
2222,8756,1128.0,1847.0
2223,8760,784.0,1837.0
2224,8763,1634.0,1829.0
2225,8767,2441.0,1817.0
2226,8773,2152.0,1813.0
2227,8773,1093.0,1806.0
2228,8778,769.0,1801.0
2229,8781,1627.0,1800.0
2230,8787,2441.0,1794.0
2231,8790,2145.0,1794.0
2232,8794,1081.0,1790.0
2233,8804,759.0,1788.0
2234,8804,1633.0,1791.0
2235,8810,2452.0,1790.0
2236,8813,2164.0,1795.0
2237,8815,1085.0,1793.0
2238,8819,754.0,1791.0
2239,8823,1609.0,1791.0
2240,8827,2420.0,1785.0
2241,8829,2130.0,1786.0
2242,8834,1058.0,1782.0
2243,8837,743.0,1780.0
2244,8841,1600.0,1782.0
2245,8846,2406.0,1776.0
2246,8849,2117.0,1778.0
2247,8851,1063.0,1777.0
2248,8857,741.0,1777.0
2249,8857,1601.0,1781.0
2250,8867,2417.0,1779.0
2251,8873,2115.0,1781.0
2252,8879,1045.0,1778.0
2253,8879,721.0,1776.0
2254,8884,1580.0,1777.0
2255,8888,2405.0,1774.0
2256,8888,2121.0,1779.0
2257,8888,1047.0,1778.0
2258,8906,728.0,1778.0
2259,8908,1584.0,1781.0
2260,8913,2401.0,1778.0
2261,8916,2112.0,1782.0
2262,8920,1048.0,1782.0
2263,8924,720.0,1781.0
2264,8926,1575.0,1783.0
2265,8926,2393.0,1780.0
2266,8934,2109.0,1784.0
2267,8936,1055.0,1785.0
2268,8939,741.0,1789.0
2269,8939,1628.0,1800.0
2270,8939,2462.0,1806.0
2271,8950,2198.0,1822.0
2272,8957,1179.0,1840.0
2273,8959,886.0,1860.0
2274,8966,1747.0,1880.0
2275,8970,2560.0,1891.0
2276,8970,2315.0,1914.0
2277,8980,1291.0,1935.0
2278,8984,988.0,1956.0
2279,8986,1831.0,1974.0
2280,8995,2635.0,1983.0
2281,8997,2334.0,1993.0
2282,9007,1256.0,1994.0
2283,9013,904.0,1990.0
2284,9018,1734.0,1985.0
2285,9026,2526.0,1973.0
2286,9033,2236.0,1968.0
2287,9033,1162.0,1956.0
2288,9036,809.0,1942.0
2289,9040,1643.0,1931.0
2290,9043,2451.0,1916.0
2291,9047,2155.0,1906.0
2292,9055,1076.0,1891.0
2293,9063,734.0,1877.0
2294,9068,1571.0,1865.0
2295,9068,2387.0,1851.0
2296,9068,2107.0,1845.0
2297,9072,1036.0,1835.0
2298,9078,702.0,1826.0
2299,9083,1558.0,1823.0
2300,9086,2363.0,1813.0
2301,9092,2086.0,1811.0
2302,9101,1021.0,1805.0
2303,9106,680.0,1799.0
2304,9108,1506.0,1793.0
2305,9122,2275.0,1774.0
2306,9126,1960.0,1759.0
2307,9128,988.0,1757.0
2308,9128,904.0,1797.0
2309,9136,2048.0,1883.0
2310,9147,3201.0,2008.0
2311,9150,3086.0,2150.0
2312,9158,2152.0,2287.0
2313,9162,1869.0,2408.0
2314,9171,2532.0,2474.0
2315,9173,3135.0,2487.0
2316,9175,2606.0,2460.0
2317,9176,1397.0,2406.0
2318,9180,868.0,2323.0
2319,9184,1488.0,2216.0
2320,9190,2144.0,2098.0
2321,9196,1836.0,2001.0
2322,9201,821.0,1922.0
2323,9209,578.0,1871.0
2324,9209,1490.0,1845.0
2325,9214,2327.0,1826.0
2326,9223,2033.0,1816.0
2327,9224,957.0,1799.0
2328,9236,631.0,1782.0
2329,9241,1479.0,1772.0
2330,9245,2298.0,1762.0
2331,9251,2018.0,1762.0
2332,9261,957.0,1755.0
2333,9262,634.0,1749.0
2334,9262,1485.0,1748.0
2335,9272,2328.0,1749.0
2336,9276,2054.0,1757.0
2337,9284,976.0,1757.0
2338,9292,646.0,1755.0
2339,9293,1498.0,1757.0
2340,9293,2342.0,1759.0
2341,9305,2077.0,1770.0
2342,9310,1010.0,1774.0
2343,9310,676.0,1777.0
2344,9317,1513.0,1779.0
2345,9324,2338.0,1778.0
2346,9326,1996.0,1773.0
2347,9335,825.0,1746.0
2348,9335,430.0,1713.0
2349,9340,1267.0,1685.0
2350,9347,2123.0,1662.0
2351,9348,1889.0,1658.0
2352,9349,877.0,1661.0
2353,9355,562.0,1668.0
2354,9366,1420.0,1678.0
2355,9373,2274.0,1686.0
2356,9384,2046.0,1707.0
2357,9388,1032.0,1729.0
2358,9397,716.0,1753.0
2359,9397,1579.0,1778.0
2360,9414,2421.0,1796.0
2361,9426,2168.0,1820.0
2362,9434,1148.0,1843.0
2363,9440,835.0,1868.0
2364,9440,1703.0,1895.0
2365,9440,2542.0,1914.0
2366,9453,2301.0,1942.0
2367,9455,1287.0,1968.0
2368,9459,978.0,1995.0
2369,9460,1847.0,2025.0
2370,9468,2690.0,2048.0
2371,9470,2414.0,2071.0
2372,9470,1367.0,2089.0
2373,9483,1039.0,2105.0
2374,9486,1862.0,2117.0
2375,9490,2645.0,2116.0
2376,9503,2327.0,2112.0
2377,9509,1234.0,2099.0
2378,9518,853.0,2080.0
2379,9518,1657.0,2060.0
2380,9522,2428.0,2030.0
2381,9522,2115.0,2004.0
2382,9522,1024.0,1973.0
2383,9539,664.0,1943.0
2384,9546,1471.0,1915.0
2385,9551,2274.0,1884.0
2386,9554,1974.0,1860.0
2387,9563,888.0,1831.0
2388,9564,543.0,1806.0
2389,9569,1368.0,1786.0
2390,9573,2190.0,1764.0
2391,9574,1901.0,1750.0
2392,9580,821.0,1731.0
2393,9585,475.0,1714.0
2394,9585,1302.0,1700.0
2395,9585,2128.0,1684.0
2396,9585,1848.0,1676.0
2397,9596,780.0,1665.0
2398,9601,511.0,1667.0
2399,9606,1298.0,1662.0
2400,9617,2136.0,1657.0
2401,9627,1859.0,1658.0
2402,9631,785.0,1653.0
2403,9634,432.0,1645.0
2404,9638,1259.0,1640.0
2405,9647,2083.0,1631.0
2406,9651,1803.0,1628.0
2407,9657,746.0,1623.0
2408,9667,427.0,1622.0
2409,9669,1286.0,1627.0
2410,9669,2137.0,1632.0
2411,9678,1878.0,1644.0
2412,9688,805.0,1648.0
2413,9688,468.0,1652.0
2414,9688,1331.0,1662.0
2415,9694,2175.0,1668.0
2416,9703,1910.0,1681.0
2417,9712,837.0,1686.0
2418,9714,519.0,1694.0
2419,9716,1372.0,1705.0
2420,9717,2208.0,1711.0
2421,9720,1942.0,1723.0
2422,9720,876.0,1729.0
2423,9720,553.0,1737.0
2424,9725,1397.0,1746.0
2425,9734,2224.0,1749.0
2426,9734,1948.0,1756.0
2427,9740,877.0,1758.0
2428,9751,535.0,1759.0
2429,9757,1370.0,1761.0
2430,9761,2197.0,1757.0
2431,9773,1911.0,1758.0
2432,9774,844.0,1754.0
2433,9782,521.0,1755.0
2434,9789,1370.0,1758.0
2435,9792,2215.0,1760.0
2436,9792,1935.0,1765.0
2437,9804,858.0,1764.0
2438,9804,519.0,1765.0
2439,9814,1376.0,1769.0
2440,9817,2230.0,1771.0
2441,9818,1971.0,1782.0
2442,9818,912.0,1789.0
2443,9825,584.0,1797.0
2444,9825,1447.0,1809.0
2445,9834,2291.0,1817.0
2446,9837,2019.0,1829.0
2447,9837,960.0,1837.0
2448,9845,635.0,1847.0
2449,9845,1488.0,1858.0
2450,9851,2330.0,1864.0
2451,9856,2062.0,1876.0
2452,9856,992.0,1882.0
2453,9856,663.0,1890.0
2454,9856,1517.0,1899.0
2455,9868,2364.0,1905.0
2456,9881,2112.0,1919.0
2457,9884,1042.0,1926.0
2458,9888,727.0,1938.0
2459,9888,1597.0,1953.0
2460,9901,2444.0,1963.0
2461,9907,2176.0,1978.0
2462,9908,1117.0,1989.0
2463,9914,797.0,2002.0
2464,9929,1665.0,2018.0
2465,9934,2499.0,2026.0
2466,9939,2240.0,2042.0
2467,9944,1186.0,2053.0
2468,9951,854.0,2064.0
2469,9951,1712.0,2077.0
2470,9951,2554.0,2085.0
2471,9959,2302.0,2100.0
2472,9964,1253.0,2113.0
2473,9970,919.0,2124.0
2474,9975,1766.0,2136.0
2475,9981,2612.0,2143.0
2476,9981,2354.0,2157.0
2477,9984,1319.0,2170.0
2478,9991,1008.0,2186.0
2479,9992,1863.0,2203.0
2480,10007,2717.0,2216.0
2481,10011,2467.0,2236.0
2482,10018,1434.0,2254.0
2483,10022,1157.0,2280.0
2484,10033,2049.0,2312.0
2485,10034,2908.0,2338.0
2486,10040,2613.0,2361.0
2487,10044,1578.0,2382.0
2488,10053,1291.0,2407.0
2489,10064,2150.0,2431.0
2490,10068,3013.0,2453.0
2491,10072,2724.0,2474.0
2492,10077,1646.0,2485.0
2493,10084,1310.0,2493.0
2494,10086,2129.0,2497.0
2495,10086,2951.0,2493.0
2496,10086,2636.0,2489.0
2497,10095,1570.0,2482.0
2498,10095,1229.0,2474.0
2499,10103,2064.0,2467.0
2500,10109,2911.0,2460.0
2501,10109,2636.0,2460.0
2502,10124,1589.0,2458.0
2503,10126,1271.0,2461.0
2504,10133,2111.0,2463.0
2505,10137,2960.0,2463.0
2506,10137,2672.0,2467.0
2507,10149,1609.0,2466.0
2508,10151,1278.0,2467.0
2509,10158,2119.0,2467.0
2510,10158,2981.0,2469.0
2511,10165,2695.0,2474.0
2512,10169,1638.0,2475.0
2513,10169,1291.0,2474.0
2514,10180,2117.0,2472.0
2515,10194,2950.0,2466.0
2516,10201,2617.0,2455.0
2517,10207,1519.0,2437.0
2518,10210,1277.0,2439.0
2519,10212,2336.0,2477.0
2520,10220,3751.0,2602.0
2521,10221,3817.0,2769.0
2522,10221,2677.0,2897.0
2523,10231,2522.0,3043.0
2524,10236,3688.0,3213.0
2525,10236,4095.0,3263.0
2526,10241,3884.0,3325.0
2527,10244,2403.0,3305.0
2528,10252,1830.0,3250.0
2529,10255,2377.0,3144.0
2530,10259,2972.0,3004.0
2531,10270,2523.0,2864.0
2532,10274,1463.0,2751.0
2533,10277,1208.0,2673.0
2534,10284,2128.0,2619.0
2535,10284,3017.0,2578.0
2536,10293,2718.0,2549.0
2537,10293,1635.0,2523.0
2538,10303,1288.0,2501.0
2539,10308,2108.0,2474.0
2540,10315,2948.0,2446.0
2541,10319,2654.0,2428.0
2542,10327,1557.0,2408.0
2543,10335,1211.0,2390.0
2544,10340,2044.0,2371.0
2545,10345,2879.0,2349.0
2546,10351,2586.0,2335.0
2547,10356,1518.0,2322.0
2548,10356,1171.0,2311.0
2549,10356,1998.0,2297.0
2550,10356,2844.0,2282.0
2551,10366,2553.0,2273.0
2552,10377,1497.0,2267.0
2553,10379,1154.0,2261.0
2554,10381,1976.0,2252.0
2555,10388,2814.0,2239.0
2556,10396,2530.0,2233.0
2557,10401,1457.0,2225.0
2558,10403,1111.0,2218.0
2559,10410,1947.0,2211.0
2560,10416,2796.0,2202.0
2561,10423,2522.0,2201.0
2562,10431,1466.0,2199.0
2563,10441,1130.0,2199.0
2564,10448,1973.0,2200.0
2565,10451,2830.0,2199.0
2566,10451,2567.0,2205.0
2567,10454,1510.0,2209.0
2568,10454,1183.0,2216.0
2569,10461,2025.0,2223.0
2570,10461,2895.0,2228.0
2571,10467,2639.0,2241.0
2572,10475,1592.0,2252.0
2573,10475,1284.0,2268.0
2574,10481,2148.0,2286.0
2575,10486,3072.0,2310.0
2576,10486,2820.0,2339.0
2577,10486,1773.0,2363.0
2578,10492,1450.0,2388.0
2579,10503,2307.0,2411.0
2580,10518,3255.0,2444.0
2581,10523,2947.0,2468.0
2582,10528,1873.0,2486.0
2583,10534,1530.0,2502.0
2584,10536,2373.0,2515.0
2585,10540,3309.0,2535.0
2586,10546,2931.0,2538.0
2587,10558,1796.0,2528.0
2588,10558,1400.0,2513.0
2589,10570,2180.0,2488.0
2590,10574,2993.0,2455.0
2591,10578,2667.0,2423.0
2592,10581,1553.0,2389.0
2593,10584,1177.0,2357.0
2594,10586,1966.0,2320.0
2595,10587,2787.0,2280.0
2596,10593,2492.0,2248.0
2597,10597,1421.0,2220.0
2598,10603,1077.0,2199.0
2599,10607,1905.0,2179.0
2600,10609,2756.0,2158.0
2601,10614,2491.0,2148.0
2602,10623,1438.0,2140.0
2603,10626,1100.0,2136.0
2604,10629,1948.0,2135.0
2605,10642,2813.0,2133.0
2606,10645,2564.0,2140.0
2607,10649,1526.0,2148.0
2608,10651,1186.0,2158.0
2609,10659,2019.0,2165.0
2610,10662,2876.0,2169.0
2611,10667,2610.0,2177.0
2612,10680,1554.0,2183.0
2613,10690,1216.0,2191.0
2614,10690,2042.0,2196.0
2615,10701,2889.0,2196.0
2616,10705,2601.0,2198.0
2617,10706,1529.0,2195.0
2618,10708,1178.0,2193.0
2619,10710,2010.0,2191.0
2620,10712,2871.0,2188.0
2621,10712,2611.0,2192.0
2622,10715,1541.0,2191.0
2623,10720,1193.0,2192.0
2624,10725,2023.0,2192.0
2625,10729,2880.0,2190.0
2626,10736,2628.0,2196.0
2627,10738,1568.0,2198.0
2628,10741,1227.0,2203.0
2629,10755,2065.0,2208.0
2630,10755,2937.0,2213.0
2631,10763,2669.0,2221.0
2632,10767,1607.0,2225.0
2633,10773,1263.0,2230.0
2634,10778,2104.0,2237.0
2635,10785,2976.0,2243.0
2636,10787,2703.0,2250.0
2637,10787,1631.0,2252.0
2638,10794,1272.0,2254.0
2639,10795,2106.0,2256.0
2640,10811,2974.0,2257.0
2641,10820,2705.0,2261.0
2642,10826,1635.0,2261.0
2643,10826,1287.0,2263.0
2644,10826,2107.0,2263.0
2645,10837,2963.0,2259.0
2646,10837,2691.0,2259.0
2647,10837,1631.0,2258.0
2648,10837,1284.0,2259.0
2649,10851,2133.0,2263.0
2650,10852,3005.0,2266.0
2651,10852,2740.0,2272.0
2652,10863,1658.0,2272.0
2653,10864,1303.0,2273.0
2654,10866,2136.0,2275.0
2655,10870,3019.0,2277.0
2656,10874,2743.0,2280.0
2657,10881,1679.0,2282.0
2658,10888,1318.0,2283.0
2659,10899,2130.0,2281.0
2660,10901,3007.0,2279.0
2661,10905,2741.0,2280.0
2662,10914,1671.0,2279.0
2663,10918,1315.0,2279.0
2664,10922,2140.0,2278.0
2665,10928,3013.0,2277.0
2666,10940,2741.0,2278.0
2667,10945,1669.0,2275.0
2668,10954,1310.0,2274.0
2669,10954,2122.0,2270.0
2670,10962,2994.0,2266.0
2671,10962,2721.0,2264.0
2672,10962,1637.0,2257.0
2673,10968,1268.0,2251.0
2674,10972,2083.0,2244.0
2675,10977,2952.0,2236.0
2676,10977,2673.0,2230.0
2677,10982,1600.0,2222.0
2678,10984,1239.0,2216.0
2679,10984,2032.0,2206.0
2680,10993,2892.0,2194.0
2681,11005,2608.0,2183.0
2682,11009,1527.0,2170.0
2683,11019,1177.0,2162.0
2684,11023,1997.0,2154.0
2685,11026,2843.0,2142.0
2686,11026,2578.0,2136.0
2687,11036,1497.0,2125.0
2688,11040,1123.0,2115.0
2689,11041,1930.0,2104.0
2690,11044,2776.0,2089.0
2691,11056,2521.0,2082.0
2692,11057,1469.0,2075.0
2693,11065,1119.0,2073.0
2694,11067,1944.0,2071.0
2695,11071,2806.0,2068.0
2696,11075,2576.0,2074.0
2697,11075,1537.0,2081.0
2698,11075,1201.0,2091.0
2699,11075,2005.0,2098.0
2700,11084,2853.0,2099.0
2701,11087,2643.0,2111.0
2702,11087,1597.0,2120.0
2703,11096,1245.0,2131.0
2704,11101,2053.0,2139.0
2705,11106,2901.0,2141.0
2706,11107,2623.0,2143.0
2707,11109,1529.0,2134.0
2708,11109,1139.0,2123.0
2709,11121,1912.0,2107.0
2710,11121,2722.0,2084.0
2711,11128,2443.0,2063.0
2712,11139,1373.0,2041.0
2713,11142,990.0,2020.0
2714,11145,1796.0,2002.0
2715,11151,2635.0,1982.0
2716,11160,2383.0,1969.0
2717,11161,1305.0,1952.0
2718,11167,918.0,1935.0
2719,11171,1717.0,1919.0
2720,11184,2551.0,1900.0
2721,11184,2307.0,1889.0
2722,11192,1241.0,1875.0
2723,11192,873.0,1864.0
2724,11201,1694.0,1858.0
2725,11201,2536.0,1848.0
2726,11201,2291.0,1844.0
2727,11207,1230.0,1837.0
2728,11209,841.0,1829.0
2729,11210,1636.0,1820.0
2730,11217,2434.0,1801.0
2731,11220,2182.0,1788.0
2732,11227,1231.0,1791.0
2733,11229,1109.0,1836.0
2734,11232,2232.0,1927.0
2735,11235,3517.0,2076.0
2736,11243,3490.0,2243.0
2737,11243,2430.0,2380.0
2738,11245,2115.0,2505.0
2739,11245,2742.0,2572.0
2740,11256,3473.0,2599.0
2741,11261,2900.0,2568.0
2742,11261,1665.0,2510.0
2743,11267,1100.0,2428.0
2744,11272,1688.0,2317.0
2745,11284,2399.0,2197.0
2746,11284,2166.0,2105.0
2747,11284,1184.0,2038.0
2748,11303,898.0,1999.0
2749,11313,1755.0,1977.0
2750,11318,2613.0,1957.0
2751,11318,2351.0,1944.0
2752,11327,1273.0,1926.0
2753,11334,896.0,1908.0
2754,11335,1705.0,1894.0
2755,11335,2540.0,1878.0
2756,11345,2314.0,1872.0
2757,11346,1270.0,1866.0
2758,11351,908.0,1863.0
2759,11355,1719.0,1861.0
2760,11360,2555.0,1854.0
2761,11362,2329.0,1857.0
2762,11366,1275.0,1855.0
2763,11370,910.0,1855.0
2764,11376,1719.0,1855.0
2765,11378,2552.0,1850.0
2766,11384,2335.0,1855.0
2767,11386,1291.0,1857.0
2768,11392,936.0,1861.0
2769,11397,1743.0,1866.0
2770,11401,2558.0,1862.0
2771,11408,2331.0,1865.0
2772,11408,1280.0,1864.0
2773,11416,918.0,1864.0
2774,11419,1751.0,1870.0
2775,11434,2618.0,1876.0
2776,11438,2388.0,1888.0
2777,11441,1337.0,1893.0
2778,11449,968.0,1899.0
2779,11451,1781.0,1905.0
2780,11460,2633.0,1908.0
2781,11460,2413.0,1918.0
2782,11460,1377.0,1926.0
2783,11460,1044.0,1939.0
2784,11469,1876.0,1955.0
2785,11473,2752.0,1970.0
2786,11473,2529.0,1991.0
2787,11481,1495.0,2006.0
2788,11490,1157.0,2025.0
2789,11492,1987.0,2046.0
2790,11496,2879.0,2067.0
2791,11498,2673.0,2095.0
2792,11505,1646.0,2118.0
2793,11516,1296.0,2142.0
2794,11518,2115.0,2164.0
2795,11522,3013.0,2187.0
2796,11522,2804.0,2216.0
2797,11535,1759.0,2236.0
2798,11536,1393.0,2255.0
2799,11542,2182.0,2269.0
2800,11542,3039.0,2277.0
2801,11550,2747.0,2278.0
2802,11565,1658.0,2269.0
2803,11573,1247.0,2256.0
2804,11577,2008.0,2238.0
2805,11583,2835.0,2214.0
2806,11584,2573.0,2195.0
2807,11584,1484.0,2169.0
2808,11584,1081.0,2143.0
2809,11594,1841.0,2116.0
2810,11595,2671.0,2085.0
2811,11599,2439.0,2064.0
2812,11604,1374.0,2041.0
2813,11604,982.0,2021.0
2814,11608,1775.0,2004.0
2815,11613,2623.0,1985.0
2816,11617,2390.0,1974.0
2817,11626,1336.0,1961.0
2818,11626,957.0,1951.0
2819,11631,1758.0,1944.0
2820,11636,2612.0,1935.0
2821,11636,2399.0,1935.0
2822,11646,1359.0,1933.0
2823,11657,994.0,1935.0
2824,11657,1799.0,1939.0
2825,11665,2650.0,1938.0
2826,11672,2412.0,1941.0
2827,11672,1347.0,1937.0
2828,11677,962.0,1933.0
2829,11681,1747.0,1929.0
2830,11688,2594.0,1920.0
2831,11701,2352.0,1916.0
2832,11707,1320.0,1912.0
2833,11714,935.0,1908.0
2834,11718,1721.0,1904.0
2835,11722,2548.0,1893.0
2836,11722,2334.0,1891.0
2837,11730,1266.0,1883.0
2838,11731,831.0,1867.0
2839,11734,1647.0,1859.0
2840,11734,2472.0,1843.0
2841,11737,2253.0,1836.0
2842,11739,1207.0,1827.0
2843,11742,834.0,1823.0
2844,11746,1620.0,1819.0
2845,11750,2444.0,1807.0
2846,11754,2216.0,1802.0
2847,11761,1157.0,1791.0
2848,11761,754.0,1780.0
2849,11761,1535.0,1770.0
2850,11768,2338.0,1750.0
2851,11771,2100.0,1736.0
2852,11771,1019.0,1714.0
2853,11771,613.0,1693.0
2854,11785,1378.0,1672.0
2855,11792,2218.0,1650.0
2856,11792,1983.0,1634.0
2857,11809,907.0,1613.0
2858,11811,507.0,1594.0
2859,11818,1290.0,1577.0
2860,11823,2128.0,1558.0
2861,11825,1903.0,1547.0
2862,11834,834.0,1530.0
2863,11834,445.0,1517.0
2864,11847,1231.0,1507.0
2865,11851,2090.0,1496.0
2866,11855,1899.0,1497.0
2867,11855,866.0,1497.0
2868,11863,486.0,1500.0
2869,11869,1275.0,1503.0
2870,11876,2130.0,1503.0
2871,11879,1917.0,1509.0
2872,11885,872.0,1510.0
2873,11888,493.0,1514.0
2874,11888,1283.0,1519.0
2875,11896,2145.0,1521.0
2876,11896,1944.0,1530.0
2877,11896,906.0,1536.0
2878,11901,529.0,1544.0
2879,11908,1310.0,1551.0
2880,11908,2180.0,1556.0
2881,11911,1977.0,1567.0
2882,11917,929.0,1572.0
2883,11927,553.0,1580.0
2884,11929,1340.0,1588.0
2885,11935,2206.0,1593.0
2886,11944,2019.0,1606.0
2887,11948,989.0,1616.0
2888,11952,628.0,1631.0
2889,11958,1432.0,1648.0
2890,11959,2293.0,1660.0
2891,11969,2077.0,1673.0
2892,11974,1026.0,1680.0
2893,11979,681.0,1695.0
2894,11984,1496.0,1712.0
2895,11987,2340.0,1722.0
