Index,Time_ms,Raw,Filtered
0,0,2048,2048
1,2,2048,2048
2,5,2048,2048
3,8,2048,2048
4,11,2048,2048
5,13,2048,2048
6,16,2048,2048
7,19,2048,2048
8,22,2048,2048
9,25,2048,2048
10,27,2048,2048
11,30,2048,2048
12,33,2048,2048
13,36,2048,2048
14,38,2048,2048
15,41,2048,2048
16,44,2048,2048
17,47,2048,2048
18,50,2048,2048
19,52,2048,2048
20,55,2048,2048
21,58,2048,2048
22,61,2048,2048
23,63,2048,2048
24,66,2048,2048
25,69,2048,2048
26,72,2049,2049
27,75,2049,2049
28,77,2050,2050
29,80,2051,2051
30,83,2052,2052
31,86,2054,2054
32,88,2057,2057
33,91,2060,2060
34,94,2064,2064
35,97,2069,2069
36,100,2074,2074
37,102,2080,2080
38,105,2086,2086
39,108,2091,2091
40,111,2096,2096
41,113,2100,2100
42,116,2102,2102
43,119,2103,2103
44,122,2102,2102
45,125,2100,2100
46,127,2096,2096
47,130,2091,2091
48,133,2086,2086
49,136,2080,2080
50,138,2074,2074
51,141,2069,2069
52,144,2064,2064
53,147,2060,2060
54,150,2057,2057
55,152,2054,2054
56,155,2052,2052
57,158,2051,2051
58,161,2050,2050
59,163,2049,2049
60,166,2049,2049
61,169,2048,2048
62,172,2048,2048
63,175,2048,2048
64,177,2048,2048
65,180,2048,2048
66,183,2048,2048
67,186,2048,2048
68,188,2048,2048
69,191,2048,2048
70,194,2048,2048
71,197,2048,2048
72,200,2048,2048
73,202,2048,2048
74,205,2048,2048
75,208,2048,2048
76,211,2048,2048
77,213,2048,2048
78,216,2048,2048
79,219,2051,2051
80,222,2052,2052
81,225,2055,2055
82,227,2058,2058
83,230,2063,2063
84,233,2069,2069
85,236,2078,2078
86,238,2089,2089
87,241,2103,2103
88,244,2120,2120
89,247,2141,2141
90,250,2165,2165
91,252,2192,2192
92,255,2221,2221
93,258,2252,2252
94,261,2284,2284
95,263,2314,2314
96,266,2342,2342
97,269,2365,2365
98,272,2383,2383
99,275,2394,2394
100,277,2398,2398
101,280,2394,2394
102,283,2383,2383
103,286,2365,2365
104,288,2342,2342
105,291,2314,2314
106,294,2284,2284
107,297,2252,2252
108,300,2221,2221
109,302,2192,2192
110,305,2165,2165
111,308,2141,2141
112,311,2120,2120
113,313,2103,2103
114,316,2089,2089
115,319,2078,2078
116,322,2069,2069
117,325,2063,2063
118,327,2058,2058
119,330,2055,2055
120,333,2052,2052
121,336,2048,2048
122,338,2048,2048
123,341,2048,2048
124,344,2048,2048
125,347,2048,2048
126,350,2048,2048
127,352,2048,2048
128,355,2048,2048
129,358,2048,2048
130,361,2048,2048
131,363,2048,2048
132,366,2048,2048
133,369,2048,2048
134,372,2048,2048
135,375,2048,2048
136,377,2048,2048
137,380,2048,2048
138,383,2048,2048
139,386,2048,2048
140,388,2048,2048
141,391,2048,2048
142,394,2048,2048
143,397,2048,2048
144,400,2048,2048
145,402,2048,2048
146,405,2048,2048
147,408,2048,2048
148,411,2048,2048
149,413,2048,2048
150,416,2048,2048
151,419,2049,2049
152,422,2049,2049
153,425,2049,2049
154,427,2050,2050
155,430,2051,2051
156,433,2051,2051
157,436,2053,2053
158,438,2054,2054
159,441,2056,2056
160,444,2058,2058
161,447,2060,2060
162,450,2063,2063
163,452,2067,2067
164,455,2070,2070
165,458,2075,2075
166,461,2080,2080
167,463,2085,2085
168,466,2091,2091
169,469,2097,2097
170,472,2103,2103
171,475,2109,2109
172,477,2115,2115
173,480,2120,2120
174,483,2125,2125
175,486,2130,2130
176,488,2133,2133
177,491,2136,2136
178,494,2137,2137
179,497,2138,2138
180,500,2137,2137
181,502,2136,2136
182,505,2133,2133
183,508,2130,2130
184,511,2125,2125
185,513,2120,2120
186,516,2115,2115
187,519,2109,2109
188,522,2103,2103
189,525,2097,2097
190,527,2091,2091
191,530,2085,2085
192,533,2080,2080
193,536,2075,2075
194,538,2070,2070
195,541,2067,2067
196,544,2063,2063
197,547,2060,2060
198,550,2058,2058
199,552,2056,2056
200,555,2054,2054
201,558,2053,2053
202,561,2051,2051
203,563,2051,2051
204,566,2050,2050
205,569,2049,2049
206,572,2049,2049
207,575,2048,2048
208,577,2048,2048
209,580,2048,2048
210,583,2048,2048
211,586,2048,2048
212,588,2048,2048
213,591,2048,2048
214,594,2048,2048
215,597,2048,2048
216,600,2048,2048
217,602,2048,2048
218,605,2048,2048
219,608,2048,2048
220,611,2048,2048
221,613,2048,2048
222,616,2048,2048
223,619,2048,2048
224,622,2048,2048
225,625,2048,2048
226,627,2048,2048
227,630,2048,2048
228,633,2048,2048
229,636,2048,2048
230,638,2048,2048
231,641,2048,2048
232,644,2048,2048
233,647,2048,2048
234,650,2048,2048
235,652,2048,2048
236,655,2048,2048
237,658,2048,2048
238,661,2048,2048
239,663,2048,2048
240,666,2048,2048
241,669,2048,2048
242,672,2048,2048
243,675,2048,2048
244,677,2048,2048
245,680,2048,2048
246,683,2048,2048
247,686,2048,2048
248,688,2048,2048
249,691,2048,2048
250,694,2048,2048
251,697,2048,2048
252,700,2048,2048
253,702,2048,2048
254,705,2048,2048
255,708,2048,2048
256,711,2048,2048
257,713,2048,2048
258,716,2048,2048
259,719,2048,2048
260,722,2048,2048
261,725,2048,2048
262,727,2048,2048
263,730,2048,2048
264,733,2048,2048
265,736,2048,2048
266,738,2048,2048
267,741,2048,2048
268,744,2048,2048
269,747,2048,2048
270,750,2048,2048
271,752,2048,2048
272,755,2048,2048
273,758,2048,2048
274,761,2048,2048
275,763,2048,2048
276,766,2048,2048
277,769,2048,2048
278,772,2048,2048
279,775,2048,2048
280,777,2048,2048
281,780,2048,2048
282,783,2048,2048
283,786,2048,2048
284,788,2048,2048
285,791,2048,2048
286,794,2048,2048
287,797,2048,2048
288,800,2048,2048
289,802,2048,2048
290,805,2048,2048
291,808,2048,2048
292,811,2048,2048
293,813,2048,2048
294,816,2048,2048
295,819,2048,2048
296,822,2048,2048
297,825,2048,2048
298,827,2048,2048
299,830,2048,2048
300,833,2048,2048
301,836,2048,2048
302,838,2048,2048
303,841,2048,2048
304,844,2048,2048
305,847,2048,2048
306,850,2048,2048
307,852,2048,2048
308,855,2048,2048
309,858,2048,2048
310,861,2048,2048
311,863,2048,2048
312,866,2048,2048
313,869,2048,2048
314,872,2049,2049
315,875,2049,2049
316,877,2050,2050
317,880,2051,2051
318,883,2052,2052
319,886,2054,2054
320,888,2057,2057
321,891,2060,2060
322,894,2064,2064
323,897,2069,2069
324,900,2074,2074
325,902,2080,2080
326,905,2086,2086
327,908,2091,2091
328,911,2096,2096
329,913,2100,2100
330,916,2102,2102
331,919,2103,2103
332,922,2102,2102
333,925,2100,2100
334,927,2096,2096
335,930,2091,2091
336,933,2086,2086
337,936,2080,2080
338,938,2074,2074
339,941,2069,2069
340,944,2064,2064
341,947,2060,2060
342,950,2057,2057
343,952,2054,2054
344,955,2052,2052
345,958,2051,2051
346,961,2050,2050
347,963,2049,2049
348,966,2049,2049
349,969,2048,2048
350,972,2048,2048
351,975,2048,2048
352,977,2048,2048
353,980,2048,2048
354,983,2048,2048
355,986,2048,2048
356,988,2048,2048
357,991,2048,2048
358,994,2048,2048
359,997,2048,2048
360,1000,2048,2048
361,1002,2048,2048
362,1005,2048,2048
363,1008,2048,2048
364,1011,2048,2048
365,1013,2048,2048
366,1016,2048,2048
367,1019,2051,2051
368,1022,2052,2052
369,1025,2055,2055
370,1027,2058,2058
371,1030,2063,2063
372,1033,2069,2069
373,1036,2078,2078
374,1038,2089,2089
375,1041,2103,2103
376,1044,2120,2120
377,1047,2141,2141
378,1050,2165,2165
379,1052,2192,2192
380,1055,2221,2221
381,1058,2252,2252
382,1061,2284,2284
383,1063,2314,2314
384,1066,2342,2342
385,1069,2365,2365
386,1072,2383,2383
387,1075,2394,2394
388,1077,2398,2398
389,1080,2394,2394
390,1083,2383,2383
391,1086,2365,2365
392,1088,2342,2342
393,1091,2314,2314
394,1094,2284,2284
395,1097,2252,2252
396,1100,2221,2221
397,1102,2192,2192
398,1105,2165,2165
399,1108,2141,2141
400,1111,2120,2120
401,1113,2103,2103
402,1116,2089,2089
403,1119,2078,2078
404,1122,2069,2069
405,1125,2063,2063
406,1127,2058,2058
407,1130,2055,2055
408,1133,2052,2052
409,1136,2048,2048
410,1138,2048,2048
411,1141,2048,2048
412,1144,2048,2048
413,1147,2048,2048
414,1150,2048,2048
415,1152,2048,2048
416,1155,2048,2048
417,1158,2048,2048
418,1161,2048,2048
419,1163,2048,2048
420,1166,2048,2048
421,1169,2048,2048
422,1172,2048,2048
423,1175,2048,2048
424,1177,2048,2048
425,1180,2048,2048
426,1183,2048,2048
427,1186,2048,2048
428,1188,2048,2048
429,1191,2048,2048
430,1194,2048,2048
431,1197,2048,2048
432,1200,2048,2048
433,1202,2048,2048
434,1205,2048,2048
435,1208,2048,2048
436,1211,2048,2048
437,1213,2048,2048
438,1216,2048,2048
439,1219,2049,2049
440,1222,2049,2049
441,1225,2049,2049
442,1227,2050,2050
443,1230,2051,2051
444,1233,2051,2051
445,1236,2053,2053
446,1238,2054,2054
447,1241,2056,2056
448,1244,2058,2058
449,1247,2060,2060
450,1250,2063,2063
451,1252,2067,2067
452,1255,2070,2070
453,1258,2075,2075
454,1261,2080,2080
455,1263,2085,2085
456,1266,2091,2091
457,1269,2097,2097
458,1272,2103,2103
459,1275,2109,2109
460,1277,2115,2115
461,1280,2120,2120
462,1283,2125,2125
463,1286,2130,2130
464,1288,2133,2133
465,1291,2136,2136
466,1294,2137,2137
467,1297,2138,2138
468,1300,2137,2137
469,1302,2136,2136
470,1305,2133,2133
471,1308,2130,2130
472,1311,2125,2125
473,1313,2120,2120
474,1316,2115,2115
475,1319,2109,2109
476,1322,2103,2103
477,1325,2097,2097
478,1327,2091,2091
479,1330,2085,2085
480,1333,2080,2080
481,1336,2075,2075
482,1338,2070,2070
483,1341,2067,2067
484,1344,2063,2063
485,1347,2060,2060
486,1350,2058,2058
487,1352,2056,2056
488,1355,2054,2054
489,1358,2053,2053
490,1361,2051,2051
491,1363,2051,2051
492,1366,2050,2050
493,1369,2049,2049
494,1372,2049,2049
495,1375,2048,2048
496,1377,2048,2048
497,1380,2048,2048
498,1383,2048,2048
499,1386,2048,2048
500,1388,2048,2048
501,1391,2048,2048
502,1394,2048,2048
503,1397,2048,2048
504,1400,2048,2048
505,1402,2048,2048
506,1405,2048,2048
507,1408,2048,2048
508,1411,2048,2048
509,1413,2048,2048
510,1416,2048,2048
511,1419,2048,2048
512,1422,2048,2048
513,1425,2048,2048
514,1427,2048,2048
515,1430,2048,2048
516,1433,2048,2048
517,1436,2048,2048
518,1438,2048,2048
519,1441,2048,2048
520,1444,2048,2048
521,1447,2048,2048
522,1450,2048,2048
523,1452,2048,2048
524,1455,2048,2048
525,1458,2048,2048
526,1461,2048,2048
527,1463,2048,2048
528,1466,2048,2048
529,1469,2048,2048
530,1472,2048,2048
531,1475,2048,2048
532,1477,2048,2048
533,1480,2048,2048
534,1483,2048,2048
535,1486,2048,2048
536,1488,2048,2048
537,1491,2048,2048
538,1494,2048,2048
539,1497,2048,2048
540,1500,2048,2048
541,1502,2048,2048
542,1505,2048,2048
543,1508,2048,2048
544,1511,2048,2048
545,1513,2048,2048
546,1516,2048,2048
547,1519,2048,2048
548,1522,2048,2048
549,1525,2048,2048
550,1527,2048,2048
551,1530,2048,2048
552,1533,2048,2048
553,1536,2048,2048
554,1538,2048,2048
555,1541,2048,2048
556,1544,2048,2048
557,1547,2048,2048
558,1550,2048,2048
559,1552,2048,2048
560,1555,2048,2048
561,1558,2048,2048
562,1561,2048,2048
563,1563,2048,2048
564,1566,2048,2048
565,1569,2048,2048
566,1572,2048,2048
567,1575,2048,2048
568,1577,2048,2048
569,1580,2048,2048
570,1583,2048,2048
571,1586,2048,2048
572,1588,2048,2048
573,1591,2048,2048
574,1594,2048,2048
575,1597,2048,2048
576,1600,2048,2048
577,1602,2048,2048
578,1605,2048,2048
579,1608,2048,2048
580,1611,2048,2048
581,1613,2048,2048
582,1616,2048,2048
583,1619,2048,2048
584,1622,2048,2048
585,1625,2048,2048
586,1627,2048,2048
587,1630,2048,2048
588,1633,2048,2048
589,1636,2048,2048
590,1638,2048,2048
591,1641,2048,2048
592,1644,2048,2048
593,1647,2048,2048
594,1650,2048,2048
595,1652,2048,2048
596,1655,2048,2048
597,1658,2048,2048
598,1661,2048,2048
599,1663,2048,2048
600,1666,2048,2048
601,1669,2048,2048
602,1672,2049,2049
603,1675,2049,2049
604,1677,2050,2050
605,1680,2051,2051
606,1683,2052,2052
607,1686,2054,2054
608,1688,2057,2057
609,1691,2060,2060
610,1694,2064,2064
611,1697,2069,2069
612,1700,2074,2074
613,1702,2080,2080
614,1705,2086,2086
615,1708,2091,2091
616,1711,2096,2096
617,1713,2100,2100
618,1716,2102,2102
619,1719,2103,2103
620,1722,2102,2102
621,1725,2100,2100
622,1727,2096,2096
623,1730,2091,2091
624,1733,2086,2086
625,1736,2080,2080
626,1738,2074,2074
627,1741,2069,2069
628,1744,2064,2064
629,1747,2060,2060
630,1750,2057,2057
631,1752,2054,2054
632,1755,2052,2052
633,1758,2051,2051
634,1761,2050,2050
635,1763,2049,2049
636,1766,2049,2049
637,1769,2048,2048
638,1772,2048,2048
639,1775,2048,2048
640,1777,2048,2048
641,1780,2048,2048
642,1783,2048,2048
643,1786,2048,2048
644,1788,2048,2048
645,1791,2048,2048
646,1794,2048,2048
647,1797,2048,2048
648,1800,2048,2048
649,1802,2048,2048
650,1805,2048,2048
651,1808,2048,2048
652,1811,2048,2048
653,1813,2048,2048
654,1816,2048,2048
655,1819,2051,2051
656,1822,2052,2052
657,1825,2055,2055
658,1827,2058,2058
659,1830,2063,2063
660,1833,2069,2069
661,1836,2078,2078
662,1838,2089,2089
663,1841,2103,2103
664,1844,2120,2120
665,1847,2141,2141
666,1850,2165,2165
667,1852,2192,2192
668,1855,2221,2221
669,1858,2252,2252
670,1861,2284,2284
671,1863,2314,2314
672,1866,2342,2342
673,1869,2365,2365
674,1872,2383,2383
675,1875,2394,2394
676,1877,2398,2398
677,1880,2394,2394
678,1883,2383,2383
679,1886,2365,2365
680,1888,2342,2342
681,1891,2314,2314
682,1894,2284,2284
683,1897,2252,2252
684,1900,2221,2221
685,1902,2192,2192
686,1905,2165,2165
687,1908,2141,2141
688,1911,2120,2120
689,1913,2103,2103
690,1916,2089,2089
691,1919,2078,2078
692,1922,2069,2069
693,1925,2063,2063
694,1927,2058,2058
695,1930,2055,2055
696,1933,2052,2052
697,1936,2048,2048
698,1938,2048,2048
699,1941,2048,2048
700,1944,2048,2048
701,1947,2048,2048
702,1950,2048,2048
703,1952,2048,2048
704,1955,2048,2048
705,1958,2048,2048
706,1961,2048,2048
707,1963,2048,2048
708,1966,2048,2048
709,1969,2048,2048
710,1972,2048,2048
711,1975,2048,2048
712,1977,2048,2048
713,1980,2048,2048
714,1983,2048,2048
715,1986,2048,2048
716,1988,2048,2048
717,1991,2048,2048
718,1994,2048,2048
719,1997,2048,2048
720,2000,2048,2048
721,2002,2048,2048
722,2005,2048,2048
723,2008,2048,2048
724,2011,2048,2048
725,2013,2048,2048
726,2016,2048,2048
727,2019,2049,2049
728,2022,2049,2049
729,2025,2049,2049
730,2027,2050,2050
731,2030,2051,2051
732,2033,2051,2051
733,2036,2053,2053
734,2038,2054,2054
735,2041,2056,2056
736,2044,2058,2058
737,2047,2060,2060
738,2050,2063,2063
739,2052,2067,2067
740,2055,2070,2070
741,2058,2075,2075
742,2061,2080,2080
743,2063,2085,2085
744,2066,2091,2091
745,2069,2097,2097
746,2072,2103,2103
747,2075,2109,2109
748,2077,2115,2115
749,2080,2120,2120
750,2083,2125,2125
751,2086,2130,2130
752,2088,2133,2133
753,2091,2136,2136
754,2094,2137,2137
755,2097,2138,2138
756,2100,2137,2137
757,2102,2136,2136
758,2105,2133,2133
759,2108,2130,2130
760,2111,2125,2125
761,2113,2120,2120
762,2116,2115,2115
763,2119,2109,2109
764,2122,2103,2103
765,2125,2097,2097
766,2127,2091,2091
767,2130,2085,2085
768,2133,2080,2080
769,2136,2075,2075
770,2138,2070,2070
771,2141,2067,2067
772,2144,2063,2063
773,2147,2060,2060
774,2150,2058,2058
775,2152,2056,2056
776,2155,2054,2054
777,2158,2053,2053
778,2161,2051,2051
779,2163,2051,2051
780,2166,2050,2050
781,2169,2049,2049
782,2172,2049,2049
783,2175,2048,2048
784,2177,2048,2048
785,2180,2048,2048
786,2183,2048,2048
787,2186,2048,2048
788,2188,2048,2048
789,2191,2048,2048
790,2194,2048,2048
791,2197,2048,2048
792,2200,2048,2048
793,2202,2048,2048
794,2205,2048,2048
795,2208,2048,2048
796,2211,2048,2048
797,2213,2048,2048
798,2216,2048,2048
799,2219,2048,2048
800,2222,2048,2048
801,2225,2048,2048
802,2227,2048,2048
803,2230,2048,2048
804,2233,2048,2048
805,2236,2048,2048
806,2238,2048,2048
807,2241,2048,2048
808,2244,2048,2048
809,2247,2048,2048
810,2250,2048,2048
811,2252,2048,2048
812,2255,2048,2048
813,2258,2048,2048
814,2261,2048,2048
815,2263,2048,2048
816,2266,2048,2048
817,2269,2048,2048
818,2272,2048,2048
819,2275,2048,2048
820,2277,2048,2048
821,2280,2048,2048
822,2283,2048,2048
823,2286,2048,2048
824,2288,2048,2048
825,2291,2048,2048
826,2294,2048,2048
827,2297,2048,2048
828,2300,2048,2048
829,2302,2048,2048
830,2305,2048,2048
831,2308,2048,2048
832,2311,2048,2048
833,2313,2048,2048
834,2316,2048,2048
835,2319,2048,2048
836,2322,2048,2048
837,2325,2048,2048
838,2327,2048,2048
839,2330,2048,2048
840,2333,2048,2048
841,2336,2048,2048
842,2338,2048,2048
843,2341,2048,2048
844,2344,2048,2048
845,2347,2048,2048
846,2350,2048,2048
847,2352,2048,2048
848,2355,2048,2048
849,2358,2048,2048
850,2361,2048,2048
851,2363,2048,2048
852,2366,2048,2048
853,2369,2048,2048
854,2372,2048,2048
855,2375,2048,2048
856,2377,2048,2048
857,2380,2048,2048
858,2383,2048,2048
859,2386,2048,2048
860,2388,2048,2048
861,2391,2048,2048
862,2394,2048,2048
863,2397,2048,2048
864,2400,2048,2048
865,2402,2048,2048
866,2405,2048,2048
867,2408,2048,2048
868,2411,2048,2048
869,2413,2048,2048
870,2416,2048,2048
871,2419,2048,2048
872,2422,2048,2048
873,2425,2048,2048
874,2427,2048,2048
875,2430,2048,2048
876,2433,2048,2048
877,2436,2048,2048
878,2438,2048,2048
879,2441,2048,2048
880,2444,2048,2048
881,2447,2048,2048
882,2450,2048,2048
883,2452,2048,2048
884,2455,2048,2048
885,2458,2048,2048
886,2461,2048,2048
887,2463,2048,2048
888,2466,2048,2048
889,2469,2048,2048
890,2472,2049,2049
891,2475,2049,2049
892,2477,2050,2050
893,2480,2051,2051
894,2483,2052,2052
895,2486,2054,2054
896,2488,2057,2057
897,2491,2060,2060
898,2494,2064,2064
899,2497,2069,2069
900,2500,2074,2074
901,2502,2080,2080
902,2505,2086,2086
903,2508,2091,2091
904,2511,2096,2096
905,2513,2100,2100
906,2516,2102,2102
907,2519,2103,2103
908,2522,2102,2102
909,2525,2100,2100
910,2527,2096,2096
911,2530,2091,2091
912,2533,2086,2086
913,2536,2080,2080
914,2538,2074,2074
915,2541,2069,2069
916,2544,2064,2064
917,2547,2060,2060
918,2550,2057,2057
919,2552,2054,2054
920,2555,2052,2052
921,2558,2051,2051
922,2561,2050,2050
923,2563,2049,2049
924,2566,2049,2049
925,2569,2048,2048
926,2572,2048,2048
927,2575,2048,2048
928,2577,2048,2048
929,2580,2048,2048
930,2583,2048,2048
931,2586,2048,2048
932,2588,2048,2048
933,2591,2048,2048
934,2594,2048,2048
935,2597,2048,2048
936,2600,2048,2048
937,2602,2048,2048
938,2605,2048,2048
939,2608,2048,2048
940,2611,2048,2048
941,2613,2048,2048
942,2616,2048,2048
943,2619,2051,2051
944,2622,2052,2052
945,2625,2055,2055
946,2627,2058,2058
947,2630,2063,2063
948,2633,2069,2069
949,2636,2078,2078
950,2638,2089,2089
951,2641,2103,2103
952,2644,2120,2120
953,2647,2141,2141
954,2650,2165,2165
955,2652,2192,2192
956,2655,2221,2221
957,2658,2252,2252
958,2661,2284,2284
959,2663,2314,2314
960,2666,2342,2342
961,2669,2365,2365
962,2672,2383,2383
963,2675,2394,2394
964,2677,2398,2398
965,2680,2394,2394
966,2683,2383,2383
967,2686,2365,2365
968,2688,2342,2342
969,2691,2314,2314
970,2694,2284,2284
971,2697,2252,2252
972,2700,2221,2221
973,2702,2192,2192
974,2705,2165,2165
975,2708,2141,2141
976,2711,2120,2120
977,2713,2103,2103
978,2716,2089,2089
979,2719,2078,2078
980,2722,2069,2069
981,2725,2063,2063
982,2727,2058,2058
983,2730,2055,2055
984,2733,2052,2052
985,2736,2048,2048
986,2738,2048,2048
987,2741,2048,2048
988,2744,2048,2048
989,2747,2048,2048
990,2750,2048,2048
991,2752,2048,2048
992,2755,2048,2048
993,2758,2048,2048
994,2761,2048,2048
995,2763,2048,2048
996,2766,2048,2048
997,2769,2048,2048
998,2772,2048,2048
999,2775,2048,2048
1000,2777,2048,2048
1001,2780,2048,2048
1002,2783,2048,2048
1003,2786,2048,2048
1004,2788,2048,2048
1005,2791,2048,2048
1006,2794,2048,2048
1007,2797,2048,2048
1008,2800,2048,2048
1009,2802,2048,2048
1010,2805,2048,2048
1011,2808,2048,2048
1012,2811,2048,2048
1013,2813,2048,2048
1014,2816,2048,2048
1015,2819,2049,2049
1016,2822,2049,2049
1017,2825,2049,2049
1018,2827,2050,2050
1019,2830,2051,2051
1020,2833,2051,2051
1021,2836,2053,2053
1022,2838,2054,2054
1023,2841,2056,2056
1024,2844,2058,2058
1025,2847,2060,2060
1026,2850,2063,2063
1027,2852,2067,2067
1028,2855,2070,2070
1029,2858,2075,2075
1030,2861,2080,2080
1031,2863,2085,2085
1032,2866,2091,2091
1033,2869,2097,2097
1034,2872,2103,2103
1035,2875,2109,2109
1036,2877,2115,2115
1037,2880,2120,2120
1038,2883,2125,2125
1039,2886,2130,2130
1040,2888,2133,2133
1041,2891,2136,2136
1042,2894,2137,2137
1043,2897,2138,2138
1044,2900,2137,2137
1045,2902,2136,2136
1046,2905,2133,2133
1047,2908,2130,2130
1048,2911,2125,2125
1049,2913,2120,2120
1050,2916,2115,2115
1051,2919,2109,2109
1052,2922,2103,2103
1053,2925,2097,2097
1054,2927,2091,2091
1055,2930,2085,2085
1056,2933,2080,2080
1057,2936,2075,2075
1058,2938,2070,2070
1059,2941,2067,2067
1060,2944,2063,2063
1061,2947,2060,2060
1062,2950,2058,2058
1063,2952,2056,2056
1064,2955,2054,2054
1065,2958,2053,2053
1066,2961,2051,2051
1067,2963,2051,2051
1068,2966,2050,2050
1069,2969,2049,2049
1070,2972,2049,2049
1071,2975,2048,2048
1072,2977,2048,2048
1073,2980,2048,2048
1074,2983,2048,2048
1075,2986,2048,2048
1076,2988,2048,2048
1077,2991,2048,2048
1078,2994,2048,2048
1079,2997,2048,2048
1080,3000,2048,2048
1081,3002,2048,2048
1082,3005,2048,2048
1083,3008,2048,2048
1084,3011,2048,2048
1085,3013,2048,2048
1086,3016,2048,2048
1087,3019,2048,2048
1088,3022,2048,2048
1089,3025,2048,2048
1090,3027,2048,2048
1091,3030,2048,2048
1092,3033,2048,2048
1093,3036,2048,2048
1094,3038,2048,2048
1095,3041,2048,2048
1096,3044,2048,2048
1097,3047,2048,2048
1098,3050,2048,2048
1099,3052,2048,2048
1100,3055,2048,2048
1101,3058,2048,2048
1102,3061,2048,2048
1103,3063,2048,2048
1104,3066,2048,2048
1105,3069,2048,2048
1106,3072,2048,2048
1107,3075,2048,2048
1108,3077,2048,2048
1109,3080,2048,2048
1110,3083,2048,2048
1111,3086,2048,2048
1112,3088,2048,2048
1113,3091,2048,2048
1114,3094,2048,2048
1115,3097,2048,2048
1116,3100,2048,2048
1117,3102,2048,2048
1118,3105,2048,2048
1119,3108,2048,2048
1120,3111,2048,2048
1121,3113,2048,2048
1122,3116,2048,2048
1123,3119,2048,2048
1124,3122,2048,2048
1125,3125,2048,2048
1126,3127,2048,2048
1127,3130,2048,2048
1128,3133,2048,2048
1129,3136,2048,2048
1130,3138,2048,2048
1131,3141,2048,2048
1132,3144,2048,2048
1133,3147,2048,2048
1134,3150,2048,2048
1135,3152,2048,2048
1136,3155,2048,2048
1137,3158,2048,2048
1138,3161,2048,2048
1139,3163,2048,2048
1140,3166,2048,2048
1141,3169,2048,2048
1142,3172,2048,2048
1143,3175,2048,2048
1144,3177,2048,2048
1145,3180,2048,2048
1146,3183,2048,2048
1147,3186,2048,2048
1148,3188,2048,2048
1149,3191,2048,2048
1150,3194,2048,2048
1151,3197,2048,2048
1152,3200,2048,2048
1153,3202,2048,2048
1154,3205,2048,2048
1155,3208,2048,2048
1156,3211,2048,2048
1157,3213,2048,2048
1158,3216,2048,2048
1159,3219,2048,2048
1160,3222,2048,2048
1161,3225,2048,2048
1162,3227,2048,2048
1163,3230,2048,2048
1164,3233,2048,2048
1165,3236,2048,2048
1166,3238,2048,2048
1167,3241,2048,2048
1168,3244,2048,2048
1169,3247,2048,2048
1170,3250,2048,2048
1171,3252,2048,2048
1172,3255,2048,2048
1173,3258,2048,2048
1174,3261,2048,2048
1175,3263,2048,2048
1176,3266,2048,2048
1177,3269,2048,2048
1178,3272,2049,2049
1179,3275,2049,2049
1180,3277,2050,2050
1181,3280,2051,2051
1182,3283,2052,2052
1183,3286,2054,2054
1184,3288,2057,2057
1185,3291,2060,2060
1186,3294,2064,2064
1187,3297,2069,2069
1188,3300,2074,2074
1189,3302,2080,2080
1190,3305,2086,2086
1191,3308,2091,2091
1192,3311,2096,2096
1193,3313,2100,2100
1194,3316,2102,2102
1195,3319,2103,2103
1196,3322,2102,2102
1197,3325,2100,2100
1198,3327,2096,2096
1199,3330,2091,2091
1200,3333,2086,2086
1201,3336,2080,2080
1202,3338,2074,2074
1203,3341,2069,2069
1204,3344,2064,2064
1205,3347,2060,2060
1206,3350,2057,2057
1207,3352,2054,2054
1208,3355,2052,2052
1209,3358,2051,2051
1210,3361,2050,2050
1211,3363,2049,2049
1212,3366,2049,2049
1213,3369,2048,2048
1214,3372,2048,2048
1215,3375,2048,2048
1216,3377,2048,2048
1217,3380,2048,2048
1218,3383,2048,2048
1219,3386,2048,2048
1220,3388,2048,2048
1221,3391,2048,2048
1222,3394,2048,2048
1223,3397,2048,2048
1224,3400,2048,2048
1225,3402,2048,2048
1226,3405,2048,2048
1227,3408,2048,2048
1228,3411,2048,2048
1229,3413,2048,2048
1230,3416,2048,2048
1231,3419,2051,2051
1232,3422,2052,2052
1233,3425,2055,2055
1234,3427,2058,2058
1235,3430,2063,2063
1236,3433,2069,2069
1237,3436,2078,2078
1238,3438,2089,2089
1239,3441,2103,2103
1240,3444,2120,2120
1241,3447,2141,2141
1242,3450,2165,2165
1243,3452,2192,2192
1244,3455,2221,2221
1245,3458,2252,2252
1246,3461,2284,2284
1247,3463,2314,2314
1248,3466,2342,2342
1249,3469,2365,2365
1250,3472,2383,2383
1251,3475,2394,2394
1252,3477,2398,2398
1253,3480,2394,2394
1254,3483,2383,2383
1255,3486,2365,2365
1256,3488,2342,2342
1257,3491,2314,2314
1258,3494,2284,2284
1259,3497,2252,2252
1260,3500,2221,2221
1261,3502,2192,2192
1262,3505,2165,2165
1263,3508,2141,2141
1264,3511,2120,2120
1265,3513,2103,2103
1266,3516,2089,2089
1267,3519,2078,2078
1268,3522,2069,2069
1269,3525,2063,2063
1270,3527,2058,2058
1271,3530,2055,2055
1272,3533,2052,2052
1273,3536,2048,2048
1274,3538,2048,2048
1275,3541,2048,2048
1276,3544,2048,2048
1277,3547,2048,2048
1278,3550,2048,2048
1279,3552,2048,2048
1280,3555,2048,2048
1281,3558,2048,2048
1282,3561,2048,2048
1283,3563,2048,2048
1284,3566,2048,2048
1285,3569,2048,2048
1286,3572,2048,2048
1287,3575,2048,2048
1288,3577,2048,2048
1289,3580,2048,2048
1290,3583,2048,2048
1291,3586,2048,2048
1292,3588,2048,2048
1293,3591,2048,2048
1294,3594,2048,2048
1295,3597,2048,2048
1296,3600,2048,2048
1297,3602,2048,2048
1298,3605,2048,2048
1299,3608,2048,2048
1300,3611,2048,2048
1301,3613,2048,2048
1302,3616,2048,2048
1303,3619,2049,2049
1304,3622,2049,2049
1305,3625,2049,2049
1306,3627,2050,2050
1307,3630,2051,2051
1308,3633,2051,2051
1309,3636,2053,2053
1310,3638,2054,2054
1311,3641,2056,2056
1312,3644,2058,2058
1313,3647,2060,2060
1314,3650,2063,2063
1315,3652,2067,2067
1316,3655,2070,2070
1317,3658,2075,2075
1318,3661,2080,2080
1319,3663,2085,2085
1320,3666,2091,2091
1321,3669,2097,2097
1322,3672,2103,2103
1323,3675,2109,2109
1324,3677,2115,2115
1325,3680,2120,2120
1326,3683,2125,2125
1327,3686,2130,2130
1328,3688,2133,2133
1329,3691,2136,2136
1330,3694,2137,2137
1331,3697,2138,2138
1332,3700,2137,2137
1333,3702,2136,2136
1334,3705,2133,2133
1335,3708,2130,2130
1336,3711,2125,2125
1337,3713,2120,2120
1338,3716,2115,2115
1339,3719,2109,2109
1340,3722,2103,2103
1341,3725,2097,2097
1342,3727,2091,2091
1343,3730,2085,2085
1344,3733,2080,2080
1345,3736,2075,2075
1346,3738,2070,2070
1347,3741,2067,2067
1348,3744,2063,2063
1349,3747,2060,2060
1350,3750,2058,2058
1351,3752,2056,2056
1352,3755,2054,2054
1353,3758,2053,2053
1354,3761,2051,2051
1355,3763,2051,2051
1356,3766,2050,2050
1357,3769,2049,2049
1358,3772,2049,2049
1359,3775,2048,2048
1360,3777,2048,2048
1361,3780,2048,2048
1362,3783,2048,2048
1363,3786,2048,2048
1364,3788,2048,2048
1365,3791,2048,2048
1366,3794,2048,2048
1367,3797,2048,2048
1368,3800,2048,2048
1369,3802,2048,2048
1370,3805,2048,2048
1371,3808,2048,2048
1372,3811,2048,2048
1373,3813,2048,2048
1374,3816,2048,2048
1375,3819,2048,2048
1376,3822,2048,2048
1377,3825,2048,2048
1378,3827,2048,2048
1379,3830,2048,2048
1380,3833,2048,2048
1381,3836,2048,2048
1382,3838,2048,2048
1383,3841,2048,2048
1384,3844,2048,2048
1385,3847,2048,2048
1386,3850,2048,2048
1387,3852,2048,2048
1388,3855,2048,2048
1389,3858,2048,2048
1390,3861,2048,2048
1391,3863,2048,2048
1392,3866,2048,2048
1393,3869,2048,2048
1394,3872,2048,2048
1395,3875,2048,2048
1396,3877,2048,2048
1397,3880,2048,2048
1398,3883,2048,2048
1399,3886,2048,2048
1400,3888,2048,2048
1401,3891,2048,2048
1402,3894,2048,2048
1403,3897,2048,2048
1404,3900,2048,2048
1405,3902,2048,2048
1406,3905,2048,2048
1407,3908,2048,2048
1408,3911,2048,2048
1409,3913,2048,2048
1410,3916,2048,2048
1411,3919,2048,2048
1412,3922,2048,2048
1413,3925,2048,2048
1414,3927,2048,2048
1415,3930,2048,2048
1416,3933,2048,2048
1417,3936,2048,2048
1418,3938,2048,2048
1419,3941,2048,2048
1420,3944,2048,2048
1421,3947,2048,2048
1422,3950,2048,2048
1423,3952,2048,2048
1424,3955,2048,2048
1425,3958,2048,2048
1426,3961,2048,2048
1427,3963,2048,2048
1428,3966,2048,2048
1429,3969,2048,2048
1430,3972,2048,2048
1431,3975,2048,2048
1432,3977,2048,2048
1433,3980,2048,2048
1434,3983,2048,2048
1435,3986,2048,2048
1436,3988,2048,2048
1437,3991,2048,2048
1438,3994,2048,2048
1439,3997,2048,2048
1440,4000,2048,2048
1441,4002,2048,2048
1442,4005,2048,2048
1443,4008,2048,2048
1444,4011,2048,2048
1445,4013,2048,2048
1446,4016,2048,2048
1447,4019,2048,2048
1448,4022,2048,2048
1449,4025,2048,2048
1450,4027,2048,2048
1451,4030,2048,2048
1452,4033,2048,2048
1453,4036,2048,2048
1454,4038,2048,2048
1455,4041,2048,2048
1456,4044,2048,2048
1457,4047,2048,2048
1458,4050,2048,2048
1459,4052,2048,2048
1460,4055,2048,2048
1461,4058,2048,2048
1462,4061,2048,2048
1463,4063,2048,2048
1464,4066,2048,2048
1465,4069,2048,2048
1466,4072,2049,2049
1467,4075,2049,2049
1468,4077,2050,2050
1469,4080,2051,2051
1470,4083,2052,2052
1471,4086,2054,2054
1472,4088,2057,2057
1473,4091,2060,2060
1474,4094,2064,2064
1475,4097,2069,2069
1476,4100,2074,2074
1477,4102,2080,2080
1478,4105,2086,2086
1479,4108,2091,2091
1480,4111,2096,2096
1481,4113,2100,2100
1482,4116,2102,2102
1483,4119,2103,2103
1484,4122,2102,2102
1485,4125,2100,2100
1486,4127,2096,2096
1487,4130,2091,2091
1488,4133,2086,2086
1489,4136,2080,2080
1490,4138,2074,2074
1491,4141,2069,2069
1492,4144,2064,2064
1493,4147,2060,2060
1494,4150,2057,2057
1495,4152,2054,2054
1496,4155,2052,2052
1497,4158,2051,2051
1498,4161,2050,2050
1499,4163,2049,2049
1500,4166,2049,2049
1501,4169,2048,2048
1502,4172,2048,2048
1503,4175,2048,2048
1504,4177,2048,2048
1505,4180,2048,2048
1506,4183,2048,2048
1507,4186,2048,2048
1508,4188,2048,2048
1509,4191,2048,2048
1510,4194,2048,2048
1511,4197,2048,2048
1512,4200,2048,2048
1513,4202,2048,2048
1514,4205,2048,2048
1515,4208,2048,2048
1516,4211,2048,2048
1517,4213,2048,2048
1518,4216,2048,2048
1519,4219,2051,2051
1520,4222,2052,2052
1521,4225,2055,2055
1522,4227,2058,2058
1523,4230,2063,2063
1524,4233,2069,2069
1525,4236,2078,2078
1526,4238,2089,2089
1527,4241,2103,2103
1528,4244,2120,2120
1529,4247,2141,2141
1530,4250,2165,2165
1531,4252,2192,2192
1532,4255,2221,2221
1533,4258,2252,2252
1534,4261,2284,2284
1535,4263,2314,2314
1536,4266,2342,2342
1537,4269,2365,2365
1538,4272,2383,2383
1539,4275,2394,2394
1540,4277,2398,2398
1541,4280,2394,2394
1542,4283,2383,2383
1543,4286,2365,2365
1544,4288,2342,2342
1545,4291,2314,2314
1546,4294,2284,2284
1547,4297,2252,2252
1548,4300,2221,2221
1549,4302,2192,2192
1550,4305,2165,2165
1551,4308,2141,2141
1552,4311,2120,2120
1553,4313,2103,2103
1554,4316,2089,2089
1555,4319,2078,2078
1556,4322,2069,2069
1557,4325,2063,2063
1558,4327,2058,2058
1559,4330,2055,2055
1560,4333,2052,2052
1561,4336,2048,2048
1562,4338,2048,2048
1563,4341,2048,2048
1564,4344,2048,2048
1565,4347,2048,2048
1566,4350,2048,2048
1567,4352,2048,2048
1568,4355,2048,2048
1569,4358,2048,2048
1570,4361,2048,2048
1571,4363,2048,2048
1572,4366,2048,2048
1573,4369,2048,2048
1574,4372,2048,2048
1575,4375,2048,2048
1576,4377,2048,2048
1577,4380,2048,2048
1578,4383,2048,2048
1579,4386,2048,2048
1580,4388,2048,2048
1581,4391,2048,2048
1582,4394,2048,2048
1583,4397,2048,2048
1584,4400,2048,2048
1585,4402,2048,2048
1586,4405,2048,2048
1587,4408,2048,2048
1588,4411,2048,2048
1589,4413,2048,2048
1590,4416,2048,2048
1591,4419,2049,2049
1592,4422,2049,2049
1593,4425,2049,2049
1594,4427,2050,2050
1595,4430,2051,2051
1596,4433,2051,2051
1597,4436,2053,2053
1598,4438,2054,2054
1599,4441,2056,2056
1600,4444,2058,2058
1601,4447,2060,2060
1602,4450,2063,2063
1603,4452,2067,2067
1604,4455,2070,2070
1605,4458,2075,2075
1606,4461,2080,2080
1607,4463,2085,2085
1608,4466,2091,2091
1609,4469,2097,2097
1610,4472,2103,2103
1611,4475,2109,2109
1612,4477,2115,2115
1613,4480,2120,2120
1614,4483,2125,2125
1615,4486,2130,2130
1616,4488,2133,2133
1617,4491,2136,2136
1618,4494,2137,2137
1619,4497,2138,2138
1620,4500,2137,2137
1621,4502,2136,2136
1622,4505,2133,2133
1623,4508,2130,2130
1624,4511,2125,2125
1625,4513,2120,2120
1626,4516,2115,2115
1627,4519,2109,2109
1628,4522,2103,2103
1629,4525,2097,2097
1630,4527,2091,2091
1631,4530,2085,2085
1632,4533,2080,2080
1633,4536,2075,2075
1634,4538,2070,2070
1635,4541,2067,2067
1636,4544,2063,2063
1637,4547,2060,2060
1638,4550,2058,2058
1639,4552,2056,2056
1640,4555,2054,2054
1641,4558,2053,2053
1642,4561,2051,2051
1643,4563,2051,2051
1644,4566,2050,2050
1645,4569,2049,2049
1646,4572,2049,2049
1647,4575,2048,2048
1648,4577,2048,2048
1649,4580,2048,2048
1650,4583,2048,2048
1651,4586,2048,2048
1652,4588,2048,2048
1653,4591,2048,2048
1654,4594,2048,2048
1655,4597,2048,2048
1656,4600,2048,2048
1657,4602,2048,2048
1658,4605,2048,2048
1659,4608,2048,2048
1660,4611,2048,2048
1661,4613,2048,2048
1662,4616,2048,2048
1663,4619,2048,2048
1664,4622,2048,2048
1665,4625,2048,2048
1666,4627,2048,2048
1667,4630,2048,2048
1668,4633,2048,2048
1669,4636,2048,2048
1670,4638,2048,2048
1671,4641,2048,2048
1672,4644,2048,2048
1673,4647,2048,2048
1674,4650,2048,2048
1675,4652,2048,2048
1676,4655,2048,2048
1677,4658,2048,2048
1678,4661,2048,2048
1679,4663,2048,2048
1680,4666,2048,2048
1681,4669,2048,2048
1682,4672,2048,2048
1683,4675,2048,2048
1684,4677,2048,2048
1685,4680,2048,2048
1686,4683,2048,2048
1687,4686,2048,2048
1688,4688,2048,2048
1689,4691,2048,2048
1690,4694,2048,2048
1691,4697,2048,2048
1692,4700,2048,2048
1693,4702,2048,2048
1694,4705,2048,2048
1695,4708,2048,2048
1696,4711,2048,2048
1697,4713,2048,2048
1698,4716,2048,2048
1699,4719,2048,2048
1700,4722,2048,2048
1701,4725,2048,2048
1702,4727,2048,2048
1703,4730,2048,2048
1704,4733,2048,2048
1705,4736,2048,2048
1706,4738,2048,2048
1707,4741,2048,2048
1708,4744,2048,2048
1709,4747,2048,2048
1710,4750,2048,2048
1711,4752,2048,2048
1712,4755,2048,2048
1713,4758,2048,2048
1714,4761,2048,2048
1715,4763,2048,2048
1716,4766,2048,2048
1717,4769,2048,2048
1718,4772,2048,2048
1719,4775,2048,2048
1720,4777,2048,2048
1721,4780,2048,2048
1722,4783,2048,2048
1723,4786,2048,2048
1724,4788,2048,2048
1725,4791,2048,2048
1726,4794,2048,2048
1727,4797,2048,2048
1728,4800,2063,2063
1729,4802,2066,2066
1730,4805,2069,2069
1731,4808,2073,2073
1732,4811,2077,2077
1733,4813,2082,2082
1734,4816,2087,2087
1735,4819,2094,2094
1736,4822,2101,2101
1737,4825,2109,2109
1738,4827,2118,2118
1739,4830,2128,2128
1740,4833,2139,2139
1741,4836,2151,2151
1742,4838,2165,2165
1743,4841,2179,2179
1744,4844,2195,2195
1745,4847,2212,2212
1746,4850,2231,2231
1747,4852,2251,2251
1748,4855,2272,2272
1749,4858,2294,2294
1750,4861,2317,2317
1751,4863,2342,2342
1752,4866,2367,2367
1753,4869,2394,2394
1754,4872,2421,2421
1755,4875,2449,2449
1756,4877,2477,2477
1757,4880,2505,2505
1758,4883,2533,2533
1759,4886,2561,2561
1760,4888,2589,2589
1761,4891,2616,2616
1762,4894,2641,2641
1763,4897,2666,2666
1764,4900,2689,2689
1765,4902,2711,2711
1766,4905,2730,2730
1767,4908,2748,2748
1768,4911,2763,2763
1769,4913,2775,2775
1770,4916,2785,2785
1771,4919,2792,2792
1772,4922,2797,2797
1773,4925,2798,2798
1774,4927,2797,2797
1775,4930,2792,2792
1776,4933,2785,2785
1777,4936,2775,2775
1778,4938,2763,2763
1779,4941,2748,2748
1780,4944,2730,2730
1781,4947,2711,2711
1782,4950,2689,2689
1783,4952,2666,2666
1784,4955,2641,2641
1785,4958,2616,2616
1786,4961,2589,2589
1787,4963,2561,2561
1788,4966,2533,2533
1789,4969,2505,2505
1790,4972,2477,2477
1791,4975,2449,2449
1792,4977,2421,2421
1793,4980,2394,2394
1794,4983,2367,2367
1795,4986,2342,2342
1796,4988,2317,2317
1797,4991,2294,2294
1798,4994,2272,2272
1799,4997,2251,2251
1800,5000,2231,2231
1801,5002,2212,2212
1802,5005,2195,2195
1803,5008,2179,2179
1804,5011,2165,2165
1805,5013,2151,2151
1806,5016,2139,2139
1807,5019,2128,2128
1808,5022,2118,2118
1809,5025,2109,2109
1810,5027,2101,2101
1811,5030,2094,2094
1812,5033,2087,2087
1813,5036,2082,2082
1814,5038,2077,2077
1815,5041,2073,2073
1816,5044,2069,2069
1817,5047,2066,2066
1818,5050,2063,2063
1819,5052,2060,2060
1820,5055,2058,2058
1821,5058,2057,2057
1822,5061,2055,2055
1823,5063,2048,2048
1824,5066,2047,2047
1825,5069,2047,2047
1826,5072,2046,2046
1827,5075,2045,2045
1828,5077,2045,2045
1829,5080,2043,2043
1830,5083,2042,2042
1831,5086,2040,2040
1832,5088,2038,2038
1833,5091,2035,2035
1834,5094,2032,2032
1835,5097,2028,2028
1836,5100,2023,2023
1837,5102,2018,2018
1838,5105,2012,2012
1839,5108,2006,2006
1840,5111,1999,1999
1841,5113,1991,1991
1842,5116,1983,1983
1843,5119,1975,1975
1844,5122,1967,1967
1845,5125,1959,1959
1846,5127,1952,1952
1847,5130,1945,1945
1848,5133,1939,1939
1849,5136,1934,1934
1850,5138,1931,1931
1851,5141,1929,1929
1852,5144,1928,1928
1853,5147,1929,1929
1854,5150,1931,1931
1855,5152,1934,1934
1856,5155,1939,1939
1857,5158,1945,1945
1858,5161,2063,2063
1859,5163,2066,2066
1860,5166,2069,2069
1861,5169,2073,2073
1862,5172,2077,2077
1863,5175,2082,2082
1864,5177,2087,2087
1865,5180,2094,2094
1866,5183,2101,2101
1867,5186,2109,2109
1868,5188,2118,2118
1869,5191,2128,2128
1870,5194,2139,2139
1871,5197,2151,2151
1872,5200,2165,2165
1873,5202,2179,2179
1874,5205,2195,2195
1875,5208,2212,2212
1876,5211,2231,2231
1877,5213,2251,2251
1878,5216,2272,2272
1879,5219,2294,2294
1880,5222,2317,2317
1881,5225,2342,2342
1882,5227,2367,2367
1883,5230,2394,2394
1884,5233,2421,2421
1885,5236,2449,2449
1886,5238,2477,2477
1887,5241,2505,2505
1888,5244,2533,2533
1889,5247,2561,2561
1890,5250,2589,2589
1891,5252,2616,2616
1892,5255,2641,2641
1893,5258,2666,2666
1894,5261,2689,2689
1895,5263,2711,2711
1896,5266,2730,2730
1897,5269,2748,2748
1898,5272,2763,2763
1899,5275,2775,2775
1900,5277,2785,2785
1901,5280,2792,2792
1902,5283,2797,2797
1903,5286,2798,2798
1904,5288,2797,2797
1905,5291,2792,2792
1906,5294,2785,2785
1907,5297,2775,2775
1908,5300,2763,2763
1909,5302,2748,2748
1910,5305,2730,2730
1911,5308,2711,2711
1912,5311,2689,2689
1913,5313,2666,2666
1914,5316,2641,2641
1915,5319,2616,2616
1916,5322,2589,2589
1917,5325,2561,2561
1918,5327,2533,2533
1919,5330,2505,2505
1920,5333,2477,2477
1921,5336,2449,2449
1922,5338,2421,2421
1923,5341,2394,2394
1924,5344,2367,2367
1925,5347,2342,2342
1926,5350,2317,2317
1927,5352,2294,2294
1928,5355,2272,2272
1929,5358,2251,2251
1930,5361,2231,2231
1931,5363,2212,2212
1932,5366,2195,2195
1933,5369,2179,2179
1934,5372,2165,2165
1935,5375,2151,2151
1936,5377,2139,2139
1937,5380,2128,2128
1938,5383,2118,2118
1939,5386,2109,2109
1940,5388,2101,2101
1941,5391,2094,2094
1942,5394,2087,2087
1943,5397,2082,2082
1944,5400,2077,2077
1945,5402,2073,2073
1946,5405,2069,2069
1947,5408,2066,2066
1948,5411,2063,2063
1949,5413,2060,2060
1950,5416,2058,2058
1951,5419,2057,2057
1952,5422,2055,2055
1953,5425,2048,2048
1954,5427,2047,2047
1955,5430,2047,2047
1956,5433,2046,2046
1957,5436,2045,2045
1958,5438,2045,2045
1959,5441,2043,2043
1960,5444,2042,2042
1961,5447,2040,2040
1962,5450,2038,2038
1963,5452,2035,2035
1964,5455,2032,2032
1965,5458,2028,2028
1966,5461,2023,2023
1967,5463,2018,2018
1968,5466,2012,2012
1969,5469,2006,2006
1970,5472,1999,1999
1971,5475,1991,1991
1972,5477,1983,1983
1973,5480,1975,1975
1974,5483,1967,1967
1975,5486,1959,1959
1976,5488,1952,1952
1977,5491,1945,1945
1978,5494,1939,1939
1979,5497,1934,1934
1980,5500,1931,1931
1981,5502,1929,1929
1982,5505,1928,1928
1983,5508,1929,1929
1984,5511,1931,1931
1985,5513,1934,1934
1986,5516,1939,1939
1987,5519,1945,1945
1988,5522,2063,2063
1989,5525,2066,2066
1990,5527,2069,2069
1991,5530,2073,2073
1992,5533,2077,2077
1993,5536,2082,2082
1994,5538,2087,2087
1995,5541,2094,2094
1996,5544,2101,2101
1997,5547,2109,2109
1998,5550,2118,2118
1999,5552,2128,2128
2000,5555,2139,2139
2001,5558,2151,2151
2002,5561,2165,2165
2003,5563,2179,2179
2004,5566,2195,2195
2005,5569,2212,2212
2006,5572,2231,2231
2007,5575,2251,2251
2008,5577,2272,2272
2009,5580,2294,2294
2010,5583,2317,2317
2011,5586,2342,2342
2012,5588,2367,2367
2013,5591,2394,2394
2014,5594,2421,2421
2015,5597,2449,2449
2016,5600,2477,2477
2017,5602,2505,2505
2018,5605,2533,2533
2019,5608,2561,2561
2020,5611,2589,2589
2021,5613,2616,2616
2022,5616,2641,2641
2023,5619,2666,2666
2024,5622,2689,2689
2025,5625,2711,2711
2026,5627,2730,2730
2027,5630,2748,2748
2028,5633,2763,2763
2029,5636,2775,2775
2030,5638,2785,2785
2031,5641,2792,2792
2032,5644,2797,2797
2033,5647,2798,2798
2034,5650,2797,2797
2035,5652,2792,2792
2036,5655,2785,2785
2037,5658,2775,2775
2038,5661,2763,2763
2039,5663,2748,2748
2040,5666,2730,2730
2041,5669,2711,2711
2042,5672,2689,2689
2043,5675,2666,2666
2044,5677,2641,2641
2045,5680,2616,2616
2046,5683,2589,2589
2047,5686,2561,2561
2048,5688,2533,2533
2049,5691,2505,2505
2050,5694,2477,2477
2051,5697,2449,2449
2052,5700,2421,2421
2053,5702,2394,2394
2054,5705,2367,2367
2055,5708,2342,2342
2056,5711,2317,2317
2057,5713,2294,2294
2058,5716,2272,2272
2059,5719,2251,2251
2060,5722,2231,2231
2061,5725,2212,2212
2062,5727,2195,2195
2063,5730,2179,2179
2064,5733,2165,2165
2065,5736,2151,2151
2066,5738,2139,2139
2067,5741,2128,2128
2068,5744,2118,2118
2069,5747,2109,2109
2070,5750,2101,2101
2071,5752,2094,2094
2072,5755,2087,2087
2073,5758,2082,2082
2074,5761,2077,2077
2075,5763,2073,2073
2076,5766,2069,2069
2077,5769,2066,2066
2078,5772,2063,2063
2079,5775,2060,2060
2080,5777,2058,2058
2081,5780,2057,2057
2082,5783,2055,2055
2083,5786,2048,2048
2084,5788,2047,2047
2085,5791,2047,2047
2086,5794,2046,2046
2087,5797,2045,2045
2088,5800,2045,2045
2089,5802,2043,2043
2090,5805,2042,2042
2091,5808,2040,2040
2092,5811,2038,2038
2093,5813,2035,2035
2094,5816,2032,2032
2095,5819,2028,2028
2096,5822,2023,2023
2097,5825,2018,2018
2098,5827,2012,2012
2099,5830,2006,2006
2100,5833,1999,1999
2101,5836,1991,1991
2102,5838,1983,1983
2103,5841,1975,1975
2104,5844,1967,1967
2105,5847,1959,1959
2106,5850,1952,1952
2107,5852,1945,1945
2108,5855,1939,1939
2109,5858,1934,1934
2110,5861,1931,1931
2111,5863,1929,1929
2112,5866,1928,1928
2113,5869,1929,1929
2114,5872,1931,1931
2115,5875,1934,1934
2116,5877,1939,1939
2117,5880,1945,1945
2118,5883,2063,2063
2119,5886,2066,2066
2120,5888,2069,2069
2121,5891,2073,2073
2122,5894,2077,2077
2123,5897,2082,2082
2124,5900,2087,2087
2125,5902,2094,2094
2126,5905,2101,2101
2127,5908,2109,2109
2128,5911,2118,2118
2129,5913,2128,2128
2130,5916,2139,2139
2131,5919,2151,2151
2132,5922,2165,2165
2133,5925,2179,2179
2134,5927,2195,2195
2135,5930,2212,2212
2136,5933,2231,2231
2137,5936,2251,2251
2138,5938,2272,2272
2139,5941,2294,2294
2140,5944,2317,2317
2141,5947,2342,2342
2142,5950,2367,2367
2143,5952,2394,2394
2144,5955,2421,2421
2145,5958,2449,2449
2146,5961,2477,2477
2147,5963,2505,2505
2148,5966,2533,2533
2149,5969,2561,2561
2150,5972,2589,2589
2151,5975,2616,2616
2152,5977,2641,2641
2153,5980,2666,2666
2154,5983,2689,2689
2155,5986,2711,2711
2156,5988,2730,2730
2157,5991,2748,2748
2158,5994,2763,2763
2159,5997,2775,2775
2160,6000,2785,2785
2161,6002,2792,2792
2162,6005,2797,2797
2163,6008,2798,2798
2164,6011,2797,2797
2165,6013,2792,2792
2166,6016,2785,2785
2167,6019,2775,2775
2168,6022,2763,2763
2169,6025,2748,2748
2170,6027,2730,2730
2171,6030,2711,2711
2172,6033,2689,2689
2173,6036,2666,2666
2174,6038,2641,2641
2175,6041,2616,2616
2176,6044,2589,2589
2177,6047,2561,2561
2178,6050,2533,2533
2179,6052,2505,2505
2180,6055,2477,2477
2181,6058,2449,2449
2182,6061,2421,2421
2183,6063,2394,2394
2184,6066,2367,2367
2185,6069,2342,2342
2186,6072,2317,2317
2187,6075,2294,2294
2188,6077,2272,2272
2189,6080,2251,2251
2190,6083,2231,2231
2191,6086,2212,2212
2192,6088,2195,2195
2193,6091,2179,2179
2194,6094,2165,2165
2195,6097,2151,2151
2196,6100,2139,2139
2197,6102,2128,2128
2198,6105,2118,2118
2199,6108,2109,2109
2200,6111,2101,2101
2201,6113,2094,2094
2202,6116,2087,2087
2203,6119,2082,2082
2204,6122,2077,2077
2205,6125,2073,2073
2206,6127,2069,2069
2207,6130,2066,2066
2208,6133,2063,2063
2209,6136,2060,2060
2210,6138,2058,2058
2211,6141,2057,2057
2212,6144,2055,2055
2213,6147,2048,2048
2214,6150,2047,2047
2215,6152,2047,2047
2216,6155,2046,2046
2217,6158,2045,2045
2218,6161,2045,2045
2219,6163,2043,2043
2220,6166,2042,2042
2221,6169,2040,2040
2222,6172,2038,2038
2223,6175,2035,2035
2224,6177,2032,2032
2225,6180,2028,2028
2226,6183,2023,2023
2227,6186,2018,2018
2228,6188,2012,2012
2229,6191,2006,2006
2230,6194,1999,1999
2231,6197,1991,1991
2232,6200,1983,1983
2233,6202,1975,1975
2234,6205,1967,1967
2235,6208,1959,1959
2236,6211,1952,1952
2237,6213,1945,1945
2238,6216,1939,1939
2239,6219,1934,1934
2240,6222,1931,1931
2241,6225,1929,1929
2242,6227,1928,1928
2243,6230,1929,1929
2244,6233,1931,1931
2245,6236,1934,1934
2246,6238,1939,1939
2247,6241,1945,1945
2248,6244,2063,2063
2249,6247,2066,2066
2250,6250,2069,2069
2251,6252,2073,2073
2252,6255,2077,2077
2253,6258,2082,2082
2254,6261,2087,2087
2255,6263,2094,2094
2256,6266,2101,2101
2257,6269,2109,2109
2258,6272,2118,2118
2259,6275,2128,2128
2260,6277,2139,2139
2261,6280,2151,2151
2262,6283,2165,2165
2263,6286,2179,2179
2264,6288,2195,2195
2265,6291,2212,2212
2266,6294,2231,2231
2267,6297,2251,2251
2268,6300,2272,2272
2269,6302,2294,2294
2270,6305,2317,2317
2271,6308,2342,2342
2272,6311,2367,2367
2273,6313,2394,2394
2274,6316,2421,2421
2275,6319,2449,2449
2276,6322,2477,2477
2277,6325,2505,2505
2278,6327,2533,2533
2279,6330,2561,2561
2280,6333,2589,2589
2281,6336,2616,2616
2282,6338,2641,2641
2283,6341,2666,2666
2284,6344,2689,2689
2285,6347,2711,2711
2286,6350,2730,2730
2287,6352,2748,2748
2288,6355,2763,2763
2289,6358,2775,2775
2290,6361,2785,2785
2291,6363,2792,2792
2292,6366,2797,2797
2293,6369,2798,2798
2294,6372,2797,2797
2295,6375,2792,2792
2296,6377,2785,2785
2297,6380,2775,2775
2298,6383,2763,2763
2299,6386,2748,2748
2300,6388,2730,2730
2301,6391,2711,2711
2302,6394,2689,2689
2303,6397,2666,2666
2304,6400,2641,2641
2305,6402,2616,2616
2306,6405,2589,2589
2307,6408,2561,2561
2308,6411,2533,2533
2309,6413,2505,2505
2310,6416,2477,2477
2311,6419,2449,2449
2312,6422,2421,2421
2313,6425,2394,2394
2314,6427,2367,2367
2315,6430,2342,2342
2316,6433,2317,2317
2317,6436,2294,2294
2318,6438,2272,2272
2319,6441,2251,2251
2320,6444,2231,2231
2321,6447,2212,2212
2322,6450,2195,2195
2323,6452,2179,2179
2324,6455,2165,2165
2325,6458,2151,2151
2326,6461,2139,2139
2327,6463,2128,2128
2328,6466,2118,2118
2329,6469,2109,2109
2330,6472,2101,2101
2331,6475,2094,2094
2332,6477,2087,2087
2333,6480,2082,2082
2334,6483,2077,2077
2335,6486,2073,2073
2336,6488,2069,2069
2337,6491,2066,2066
2338,6494,2063,2063
2339,6497,2060,2060
2340,6500,2058,2058
2341,6502,2057,2057
2342,6505,2055,2055
2343,6508,2048,2048
2344,6511,2047,2047
2345,6513,2047,2047
2346,6516,2046,2046
2347,6519,2045,2045
2348,6522,2045,2045
2349,6525,2043,2043
2350,6527,2042,2042
2351,6530,2040,2040
2352,6533,2038,2038
2353,6536,2035,2035
2354,6538,2032,2032
2355,6541,2028,2028
2356,6544,2023,2023
2357,6547,2018,2018
2358,6550,2012,2012
2359,6552,2006,2006
2360,6555,1999,1999
2361,6558,1991,1991
2362,6561,1983,1983
2363,6563,1975,1975
2364,6566,1967,1967
2365,6569,1959,1959
2366,6572,1952,1952
2367,6575,1945,1945
2368,6577,1939,1939
2369,6580,1934,1934
2370,6583,1931,1931
2371,6586,1929,1929
2372,6588,1928,1928
2373,6591,1929,1929
2374,6594,1931,1931
2375,6597,1934,1934
2376,6600,1939,1939
2377,6602,1945,1945
2378,6605,2063,2063
2379,6608,2066,2066
2380,6611,2069,2069
2381,6613,2073,2073
2382,6616,2077,2077
2383,6619,2082,2082
2384,6622,2087,2087
2385,6625,2094,2094
2386,6627,2101,2101
2387,6630,2109,2109
2388,6633,2118,2118
2389,6636,2128,2128
2390,6638,2139,2139
2391,6641,2151,2151
2392,6644,2165,2165
2393,6647,2179,2179
2394,6650,2195,2195
2395,6652,2212,2212
2396,6655,2231,2231
2397,6658,2251,2251
2398,6661,2272,2272
2399,6663,2294,2294
2400,6666,2317,2317
2401,6669,2342,2342
2402,6672,2367,2367
2403,6675,2394,2394
2404,6677,2421,2421
2405,6680,2449,2449
2406,6683,2477,2477
2407,6686,2505,2505
2408,6688,2533,2533
2409,6691,2561,2561
2410,6694,2589,2589
2411,6697,2616,2616
2412,6700,2641,2641
2413,6702,2666,2666
2414,6705,2689,2689
2415,6708,2711,2711
2416,6711,2730,2730
2417,6713,2748,2748
2418,6716,2763,2763
2419,6719,2775,2775
2420,6722,2785,2785
2421,6725,2792,2792
2422,6727,2797,2797
2423,6730,2798,2798
2424,6733,2797,2797
2425,6736,2792,2792
2426,6738,2785,2785
2427,6741,2775,2775
2428,6744,2763,2763
2429,6747,2748,2748
2430,6750,2730,2730
2431,6752,2711,2711
2432,6755,2689,2689
2433,6758,2666,2666
2434,6761,2641,2641
2435,6763,2616,2616
2436,6766,2589,2589
2437,6769,2561,2561
2438,6772,2533,2533
2439,6775,2505,2505
2440,6777,2477,2477
2441,6780,2449,2449
2442,6783,2421,2421
2443,6786,2394,2394
2444,6788,2367,2367
2445,6791,2342,2342
2446,6794,2317,2317
2447,6797,2294,2294
2448,6800,2272,2272
2449,6802,2251,2251
2450,6805,2231,2231
2451,6808,2212,2212
2452,6811,2195,2195
2453,6813,2179,2179
2454,6816,2165,2165
2455,6819,2151,2151
2456,6822,2139,2139
2457,6825,2128,2128
2458,6827,2118,2118
2459,6830,2109,2109
2460,6833,2101,2101
2461,6836,2094,2094
2462,6838,2087,2087
2463,6841,2082,2082
2464,6844,2077,2077
2465,6847,2073,2073
2466,6850,2069,2069
2467,6852,2066,2066
2468,6855,2063,2063
2469,6858,2060,2060
2470,6861,2058,2058
2471,6863,2057,2057
2472,6866,2055,2055
2473,6869,2048,2048
2474,6872,2047,2047
2475,6875,2047,2047
2476,6877,2046,2046
2477,6880,2045,2045
2478,6883,2045,2045
2479,6886,2043,2043
2480,6888,2042,2042
2481,6891,2040,2040
2482,6894,2038,2038
2483,6897,2035,2035
2484,6900,2032,2032
2485,6902,2028,2028
2486,6905,2023,2023
2487,6908,2018,2018
2488,6911,2012,2012
2489,6913,2006,2006
2490,6916,1999,1999
2491,6919,1991,1991
2492,6922,1983,1983
2493,6925,1975,1975
2494,6927,1967,1967
2495,6930,1959,1959
2496,6933,1952,1952
2497,6936,1945,1945
2498,6938,1939,1939
2499,6941,1934,1934
2500,6944,1931,1931
2501,6947,1929,1929
2502,6950,1928,1928
2503,6952,1929,1929
2504,6955,1931,1931
2505,6958,1934,1934
2506,6961,1939,1939
2507,6963,1945,1945
2508,6966,2063,2063
2509,6969,2066,2066
2510,6972,2069,2069
2511,6975,2073,2073
2512,6977,2077,2077
2513,6980,2082,2082
2514,6983,2087,2087
2515,6986,2094,2094
2516,6988,2101,2101
2517,6991,2109,2109
2518,6994,2118,2118
2519,6997,2128,2128
2520,7000,2139,2139
2521,7002,2151,2151
2522,7005,2165,2165
2523,7008,2179,2179
2524,7011,2195,2195
2525,7013,2212,2212
2526,7016,2231,2231
2527,7019,2251,2251
2528,7022,2272,2272
2529,7025,2294,2294
2530,7027,2317,2317
2531,7030,2342,2342
2532,7033,2367,2367
2533,7036,2394,2394
2534,7038,2421,2421
2535,7041,2449,2449
2536,7044,2477,2477
2537,7047,2505,2505
2538,7050,2533,2533
2539,7052,2561,2561
2540,7055,2589,2589
2541,7058,2616,2616
2542,7061,2641,2641
2543,7063,2666,2666
2544,7066,2689,2689
2545,7069,2711,2711
2546,7072,2730,2730
2547,7075,2748,2748
2548,7077,2763,2763
2549,7080,2775,2775
2550,7083,2785,2785
2551,7086,2792,2792
2552,7088,2797,2797
2553,7091,2798,2798
2554,7094,2797,2797
2555,7097,2792,2792
2556,7100,2785,2785
2557,7102,2775,2775
2558,7105,2763,2763
2559,7108,2748,2748
2560,7111,2730,2730
2561,7113,2711,2711
2562,7116,2689,2689
2563,7119,2666,2666
2564,7122,2641,2641
2565,7125,2616,2616
2566,7127,2589,2589
2567,7130,2561,2561
2568,7133,2533,2533
2569,7136,2505,2505
2570,7138,2477,2477
2571,7141,2449,2449
2572,7144,2421,2421
2573,7147,2394,2394
2574,7150,2367,2367
2575,7152,2342,2342
2576,7155,2317,2317
2577,7158,2294,2294
2578,7161,2272,2272
2579,7163,2251,2251
2580,7166,2231,2231
2581,7169,2212,2212
2582,7172,2195,2195
2583,7175,2179,2179
2584,7177,2165,2165
2585,7180,2151,2151
2586,7183,2139,2139
2587,7186,2128,2128
2588,7188,2118,2118
2589,7191,2109,2109
2590,7194,2101,2101
2591,7197,2094,2094
2592,7200,2087,2087
2593,7202,2082,2082
2594,7205,2077,2077
2595,7208,2073,2073
2596,7211,2069,2069
2597,7213,2066,2066
2598,7216,2063,2063
2599,7219,2060,2060
2600,7222,2058,2058
2601,7225,2057,2057
2602,7227,2055,2055
2603,7230,2048,2048
2604,7233,2047,2047
2605,7236,2047,2047
2606,7238,2046,2046
2607,7241,2045,2045
2608,7244,2045,2045
2609,7247,2043,2043
2610,7250,2042,2042
2611,7252,2040,2040
2612,7255,2038,2038
2613,7258,2035,2035
2614,7261,2032,2032
2615,7263,2028,2028
2616,7266,2023,2023
2617,7269,2018,2018
2618,7272,2012,2012
2619,7275,2006,2006
2620,7277,1999,1999
2621,7280,1991,1991
2622,7283,1983,1983
2623,7286,1975,1975
2624,7288,1967,1967
2625,7291,1959,1959
2626,7294,1952,1952
2627,7297,1945,1945
2628,7300,1939,1939
2629,7302,1934,1934
2630,7305,1931,1931
2631,7308,1929,1929
2632,7311,1928,1928
2633,7313,1929,1929
2634,7316,1931,1931
2635,7319,1934,1934
2636,7322,1939,1939
2637,7325,1945,1945
2638,7327,2063,2063
2639,7330,2066,2066
2640,7333,2069,2069
2641,7336,2073,2073
2642,7338,2077,2077
2643,7341,2082,2082
2644,7344,2087,2087
2645,7347,2094,2094
2646,7350,2101,2101
2647,7352,2109,2109
2648,7355,2118,2118
2649,7358,2128,2128
2650,7361,2139,2139
2651,7363,2151,2151
2652,7366,2165,2165
2653,7369,2179,2179
2654,7372,2195,2195
2655,7375,2212,2212
2656,7377,2231,2231
2657,7380,2251,2251
2658,7383,2272,2272
2659,7386,2294,2294
2660,7388,2317,2317
2661,7391,2342,2342
2662,7394,2367,2367
2663,7397,2394,2394
2664,7400,2421,2421
2665,7402,2449,2449
2666,7405,2477,2477
2667,7408,2505,2505
2668,7411,2533,2533
2669,7413,2561,2561
2670,7416,2589,2589
2671,7419,2616,2616
2672,7422,2641,2641
2673,7425,2666,2666
2674,7427,2689,2689
2675,7430,2711,2711
2676,7433,2730,2730
2677,7436,2748,2748
2678,7438,2763,2763
2679,7441,2775,2775
2680,7444,2785,2785
2681,7447,2792,2792
2682,7450,2797,2797
2683,7452,2798,2798
2684,7455,2797,2797
2685,7458,2792,2792
2686,7461,2785,2785
2687,7463,2775,2775
2688,7466,2763,2763
2689,7469,2748,2748
2690,7472,2730,2730
2691,7475,2711,2711
2692,7477,2689,2689
2693,7480,2666,2666
2694,7483,2641,2641
2695,7486,2616,2616
2696,7488,2589,2589
2697,7491,2561,2561
2698,7494,2533,2533
2699,7497,2505,2505
2700,7500,2477,2477
2701,7502,2449,2449
2702,7505,2421,2421
2703,7508,2394,2394
2704,7511,2367,2367
2705,7513,2342,2342
2706,7516,2317,2317
2707,7519,2294,2294
2708,7522,2272,2272
2709,7525,2251,2251
2710,7527,2231,2231
2711,7530,2212,2212
2712,7533,2195,2195
2713,7536,2179,2179
2714,7538,2165,2165
2715,7541,2151,2151
2716,7544,2139,2139
2717,7547,2128,2128
2718,7550,2118,2118
2719,7552,2109,2109
2720,7555,2101,2101
2721,7558,2094,2094
2722,7561,2087,2087
2723,7563,2082,2082
2724,7566,2077,2077
2725,7569,2073,2073
2726,7572,2069,2069
2727,7575,2066,2066
2728,7577,2063,2063
2729,7580,2060,2060
2730,7583,2058,2058
2731,7586,2057,2057
2732,7588,2055,2055
2733,7591,2048,2048
2734,7594,2047,2047
2735,7597,2047,2047
2736,7600,2046,2046
2737,7602,2045,2045
2738,7605,2045,2045
2739,7608,2043,2043
2740,7611,2042,2042
2741,7613,2040,2040
2742,7616,2038,2038
2743,7619,2035,2035
2744,7622,2032,2032
2745,7625,2028,2028
2746,7627,2023,2023
2747,7630,2018,2018
2748,7633,2012,2012
2749,7636,2006,2006
2750,7638,1999,1999
2751,7641,1991,1991
2752,7644,1983,1983
2753,7647,1975,1975
2754,7650,1967,1967
2755,7652,1959,1959
2756,7655,1952,1952
2757,7658,1945,1945
2758,7661,1939,1939
2759,7663,1934,1934
2760,7666,1931,1931
2761,7669,1929,1929
2762,7672,1928,1928
2763,7675,1929,1929
2764,7677,1931,1931
2765,7680,1934,1934
2766,7683,1939,1939
2767,7686,1945,1945
2768,7688,2063,2063
2769,7691,2066,2066
2770,7694,2069,2069
2771,7697,2073,2073
2772,7700,2077,2077
2773,7702,2082,2082
2774,7705,2087,2087
2775,7708,2094,2094
2776,7711,2101,2101
2777,7713,2109,2109
2778,7716,2118,2118
2779,7719,2128,2128
2780,7722,2139,2139
2781,7725,2151,2151
2782,7727,2165,2165
2783,7730,2179,2179
2784,7733,2195,2195
2785,7736,2212,2212
2786,7738,2231,2231
2787,7741,2251,2251
2788,7744,2272,2272
2789,7747,2294,2294
2790,7750,2317,2317
2791,7752,2342,2342
2792,7755,2367,2367
2793,7758,2394,2394
2794,7761,2421,2421
2795,7763,2449,2449
2796,7766,2477,2477
2797,7769,2505,2505
2798,7772,2533,2533
2799,7775,2561,2561
2800,7777,2589,2589
2801,7780,2616,2616
2802,7783,2641,2641
2803,7786,2666,2666
2804,7788,2689,2689
2805,7791,2711,2711
2806,7794,2730,2730
2807,7797,2748,2748
2808,7800,2763,2763
2809,7802,2775,2775
2810,7805,2785,2785
2811,7808,2792,2792
2812,7811,2797,2797
2813,7813,2798,2798
2814,7816,2797,2797
2815,7819,2792,2792
2816,7822,2785,2785
2817,7825,2775,2775
2818,7827,2763,2763
2819,7830,2748,2748
2820,7833,2730,2730
2821,7836,2711,2711
2822,7838,2689,2689
2823,7841,2666,2666
2824,7844,2641,2641
2825,7847,2616,2616
2826,7850,2589,2589
2827,7852,2561,2561
2828,7855,2533,2533
2829,7858,2505,2505
2830,7861,2477,2477
2831,7863,2449,2449
2832,7866,2421,2421
2833,7869,2394,2394
2834,7872,2367,2367
2835,7875,2342,2342
2836,7877,2317,2317
2837,7880,2294,2294
2838,7883,2272,2272
2839,7886,2251,2251
2840,7888,2231,2231
2841,7891,2212,2212
2842,7894,2195,2195
2843,7897,2179,2179
2844,7900,2165,2165
2845,7902,2151,2151
2846,7905,2139,2139
2847,7908,2128,2128
2848,7911,2118,2118
2849,7913,2109,2109
2850,7916,2101,2101
2851,7919,2094,2094
2852,7922,2087,2087
2853,7925,2082,2082
2854,7927,2077,2077
2855,7930,2073,2073
2856,7933,2069,2069
2857,7936,2066,2066
2858,7938,2063,2063
2859,7941,2060,2060
2860,7944,2058,2058
2861,7947,2057,2057
2862,7950,2055,2055
2863,7952,2048,2048
2864,7955,2047,2047
2865,7958,2047,2047
2866,7961,2046,2046
2867,7963,2045,2045
2868,7966,2045,2045
2869,7969,2043,2043
2870,7972,2042,2042
2871,7975,2040,2040
2872,7977,2038,2038
2873,7980,2035,2035
2874,7983,2032,2032
2875,7986,2028,2028
2876,7988,2023,2023
2877,7991,2018,2018
2878,7994,2012,2012
2879,7997,2006,2006
2880,8000,1999,1999
2881,8002,1991,1991
2882,8005,1983,1983
2883,8008,1975,1975
2884,8011,1967,1967
2885,8013,1959,1959
2886,8016,1952,1952
2887,8019,1945,1945
2888,8022,1939,1939
2889,8025,1934,1934
2890,8027,1931,1931
2891,8030,1929,1929
2892,8033,1928,1928
2893,8036,1929,1929
2894,8038,1931,1931
2895,8041,1934,1934
2896,8044,1939,1939
2897,8047,1945,1945
2898,8050,2063,2063
2899,8052,2066,2066
2900,8055,2069,2069
2901,8058,2073,2073
2902,8061,2077,2077
2903,8063,2082,2082
2904,8066,2087,2087
2905,8069,2094,2094
2906,8072,2101,2101
2907,8075,2109,2109
2908,8077,2118,2118
2909,8080,2128,2128
2910,8083,2139,2139
2911,8086,2151,2151
2912,8088,2165,2165
2913,8091,2179,2179
2914,8094,2195,2195
2915,8097,2212,2212
2916,8100,2231,2231
2917,8102,2251,2251
2918,8105,2272,2272
2919,8108,2294,2294
2920,8111,2317,2317
2921,8113,2342,2342
2922,8116,2367,2367
2923,8119,2394,2394
2924,8122,2421,2421
2925,8125,2449,2449
2926,8127,2477,2477
2927,8130,2505,2505
2928,8133,2533,2533
2929,8136,2561,2561
2930,8138,2589,2589
2931,8141,2616,2616
2932,8144,2641,2641
2933,8147,2666,2666
2934,8150,2689,2689
2935,8152,2711,2711
2936,8155,2730,2730
2937,8158,2748,2748
2938,8161,2763,2763
2939,8163,2775,2775
2940,8166,2785,2785
2941,8169,2792,2792
2942,8172,2797,2797
2943,8175,2798,2798
2944,8177,2797,2797
2945,8180,2792,2792
2946,8183,2785,2785
2947,8186,2775,2775
2948,8188,2763,2763
2949,8191,2748,2748
2950,8194,2730,2730
2951,8197,2711,2711
2952,8200,2689,2689
2953,8202,2666,2666
2954,8205,2641,2641
2955,8208,2616,2616
2956,8211,2589,2589
2957,8213,2561,2561
2958,8216,2533,2533
2959,8219,2505,2505
2960,8222,2477,2477
2961,8225,2449,2449
2962,8227,2421,2421
2963,8230,2394,2394
2964,8233,2367,2367
2965,8236,2342,2342
2966,8238,2317,2317
2967,8241,2294,2294
2968,8244,2272,2272
2969,8247,2251,2251
2970,8250,2231,2231
2971,8252,2212,2212
2972,8255,2195,2195
2973,8258,2179,2179
2974,8261,2165,2165
2975,8263,2151,2151
2976,8266,2139,2139
2977,8269,2128,2128
2978,8272,2118,2118
2979,8275,2109,2109
2980,8277,2101,2101
2981,8280,2094,2094
2982,8283,2087,2087
2983,8286,2082,2082
2984,8288,2077,2077
2985,8291,2073,2073
2986,8294,2069,2069
2987,8297,2066,2066
2988,8300,2063,2063
2989,8302,2060,2060
2990,8305,2058,2058
2991,8308,2057,2057
2992,8311,2055,2055
2993,8313,2048,2048
2994,8316,2047,2047
2995,8319,2047,2047
2996,8322,2046,2046
2997,8325,2045,2045
2998,8327,2045,2045
2999,8330,2043,2043
3000,8333,2042,2042
3001,8336,2040,2040
3002,8338,2038,2038
3003,8341,2035,2035
3004,8344,2032,2032
3005,8347,2028,2028
3006,8350,2023,2023
3007,8352,2018,2018
3008,8355,2012,2012
3009,8358,2006,2006
3010,8361,1999,1999
3011,8363,1991,1991
3012,8366,1983,1983
3013,8369,1975,1975
3014,8372,1967,1967
3015,8375,1959,1959
3016,8377,1952,1952
3017,8380,1945,1945
3018,8383,1939,1939
3019,8386,1934,1934
3020,8388,1931,1931
3021,8391,1929,1929
3022,8394,1928,1928
3023,8397,1929,1929
3024,8400,1931,1931
3025,8402,1934,1934
3026,8405,1939,1939
3027,8408,1945,1945
3028,8411,2063,2063
3029,8413,2066,2066
3030,8416,2069,2069
3031,8419,2073,2073
3032,8422,2077,2077
3033,8425,2082,2082
3034,8427,2087,2087
3035,8430,2094,2094
3036,8433,2101,2101
3037,8436,2109,2109
3038,8438,2118,2118
3039,8441,2128,2128
3040,8444,2139,2139
3041,8447,2151,2151
3042,8450,2165,2165
3043,8452,2179,2179
3044,8455,2195,2195
3045,8458,2212,2212
3046,8461,2231,2231
3047,8463,2251,2251
3048,8466,2272,2272
3049,8469,2294,2294
3050,8472,2317,2317
3051,8475,2342,2342
3052,8477,2367,2367
3053,8480,2394,2394
3054,8483,2421,2421
3055,8486,2449,2449
3056,8488,2477,2477
3057,8491,2505,2505
3058,8494,2533,2533
3059,8497,2561,2561
3060,8500,2589,2589
3061,8502,2616,2616
3062,8505,2641,2641
3063,8508,2666,2666
3064,8511,2689,2689
3065,8513,2711,2711
3066,8516,2730,2730
3067,8519,2748,2748
3068,8522,2763,2763
3069,8525,2775,2775
3070,8527,2785,2785
3071,8530,2792,2792
3072,8533,2797,2797
3073,8536,2798,2798
3074,8538,2797,2797
3075,8541,2792,2792
3076,8544,2785,2785
3077,8547,2775,2775
3078,8550,2763,2763
3079,8552,2748,2748
3080,8555,2730,2730
3081,8558,2711,2711
3082,8561,2689,2689
3083,8563,2666,2666
3084,8566,2641,2641
3085,8569,2616,2616
3086,8572,2589,2589
3087,8575,2561,2561
3088,8577,2533,2533
3089,8580,2505,2505
3090,8583,2477,2477
3091,8586,2449,2449
3092,8588,2421,2421
3093,8591,2394,2394
3094,8594,2367,2367
3095,8597,2342,2342
3096,8600,2317,2317
3097,8602,2294,2294
3098,8605,2272,2272
3099,8608,2251,2251
3100,8611,2231,2231
3101,8613,2212,2212
3102,8616,2195,2195
3103,8619,2179,2179
3104,8622,2165,2165
3105,8625,2151,2151
3106,8627,2139,2139
3107,8630,2128,2128
3108,8633,2118,2118
3109,8636,2109,2109
3110,8638,2101,2101
3111,8641,2094,2094
3112,8644,2087,2087
3113,8647,2082,2082
3114,8650,2077,2077
3115,8652,2073,2073
3116,8655,2069,2069
3117,8658,2066,2066
3118,8661,2063,2063
3119,8663,2060,2060
3120,8666,2058,2058
3121,8669,2057,2057
3122,8672,2055,2055
3123,8675,2048,2048
3124,8677,2047,2047
3125,8680,2047,2047
3126,8683,2046,2046
3127,8686,2045,2045
3128,8688,2045,2045
3129,8691,2043,2043
3130,8694,2042,2042
3131,8697,2040,2040
3132,8700,2038,2038
3133,8702,2035,2035
3134,8705,2032,2032
3135,8708,2028,2028
3136,8711,2023,2023
3137,8713,2018,2018
3138,8716,2012,2012
3139,8719,2006,2006
3140,8722,1999,1999
3141,8725,1991,1991
3142,8727,1983,1983
3143,8730,1975,1975
3144,8733,1967,1967
3145,8736,1959,1959
3146,8738,1952,1952
3147,8741,1945,1945
3148,8744,1939,1939
3149,8747,1934,1934
3150,8750,1931,1931
3151,8752,1929,1929
3152,8755,1928,1928
3153,8758,1929,1929
3154,8761,1931,1931
3155,8763,1934,1934
3156,8766,1939,1939
3157,8769,1945,1945
3158,8772,2063,2063
3159,8775,2066,2066
3160,8777,2069,2069
3161,8780,2073,2073
3162,8783,2077,2077
3163,8786,2082,2082
3164,8788,2087,2087
3165,8791,2094,2094
3166,8794,2101,2101
3167,8797,2109,2109
3168,8800,2118,2118
3169,8802,2128,2128
3170,8805,2139,2139
3171,8808,2151,2151
3172,8811,2165,2165
3173,8813,2179,2179
3174,8816,2195,2195
3175,8819,2212,2212
3176,8822,2231,2231
3177,8825,2251,2251
3178,8827,2272,2272
3179,8830,2294,2294
3180,8833,2317,2317
3181,8836,2342,2342
3182,8838,2367,2367
3183,8841,2394,2394
3184,8844,2421,2421
3185,8847,2449,2449
3186,8850,2477,2477
3187,8852,2505,2505
3188,8855,2533,2533
3189,8858,2561,2561
3190,8861,2589,2589
3191,8863,2616,2616
3192,8866,2641,2641
3193,8869,2666,2666
3194,8872,2689,2689
3195,8875,2711,2711
3196,8877,2730,2730
3197,8880,2748,2748
3198,8883,2763,2763
3199,8886,2775,2775
3200,8888,2785,2785
3201,8891,2792,2792
3202,8894,2797,2797
3203,8897,2798,2798
3204,8900,2797,2797
3205,8902,2792,2792
3206,8905,2785,2785
3207,8908,2775,2775
3208,8911,2763,2763
3209,8913,2748,2748
3210,8916,2730,2730
3211,8919,2711,2711
3212,8922,2689,2689
3213,8925,2666,2666
3214,8927,2641,2641
3215,8930,2616,2616
3216,8933,2589,2589
3217,8936,2561,2561
3218,8938,2533,2533
3219,8941,2505,2505
3220,8944,2477,2477
3221,8947,2449,2449
3222,8950,2421,2421
3223,8952,2394,2394
3224,8955,2367,2367
3225,8958,2342,2342
3226,8961,2317,2317
3227,8963,2294,2294
3228,8966,2272,2272
3229,8969,2251,2251
3230,8972,2231,2231
3231,8975,2212,2212
3232,8977,2195,2195
3233,8980,2179,2179
3234,8983,2165,2165
3235,8986,2151,2151
3236,8988,2139,2139
3237,8991,2128,2128
3238,8994,2118,2118
3239,8997,2109,2109
3240,9000,2101,2101
3241,9002,2094,2094
3242,9005,2087,2087
3243,9008,2082,2082
3244,9011,2077,2077
3245,9013,2073,2073
3246,9016,2069,2069
3247,9019,2066,2066
3248,9022,2063,2063
3249,9025,2060,2060
3250,9027,2058,2058
3251,9030,2057,2057
3252,9033,2055,2055
3253,9036,2048,2048
3254,9038,2047,2047
3255,9041,2047,2047
3256,9044,2046,2046
3257,9047,2045,2045
3258,9050,2045,2045
3259,9052,2043,2043
3260,9055,2042,2042
3261,9058,2040,2040
3262,9061,2038,2038
3263,9063,2035,2035
3264,9066,2032,2032
3265,9069,2028,2028
3266,9072,2023,2023
3267,9075,2018,2018
3268,9077,2012,2012
3269,9080,2006,2006
3270,9083,1999,1999
3271,9086,1991,1991
3272,9088,1983,1983
3273,9091,1975,1975
3274,9094,1967,1967
3275,9097,1959,1959
3276,9100,1952,1952
3277,9102,1945,1945
3278,9105,1939,1939
3279,9108,1934,1934
3280,9111,1931,1931
3281,9113,1929,1929
3282,9116,1928,1928
3283,9119,1929,1929
3284,9122,1931,1931
3285,9125,1934,1934
3286,9127,1939,1939
3287,9130,1945,1945
3288,9133,2063,2063
3289,9136,2066,2066
3290,9138,2069,2069
3291,9141,2073,2073
3292,9144,2077,2077
3293,9147,2082,2082
3294,9150,2087,2087
3295,9152,2094,2094
3296,9155,2101,2101
3297,9158,2109,2109
3298,9161,2118,2118
3299,9163,2128,2128
3300,9166,2139,2139
3301,9169,2151,2151
3302,9172,2165,2165
3303,9175,2179,2179
3304,9177,2195,2195
3305,9180,2212,2212
3306,9183,2231,2231
3307,9186,2251,2251
3308,9188,2272,2272
3309,9191,2294,2294
3310,9194,2317,2317
3311,9197,2342,2342
3312,9200,2367,2367
3313,9202,2394,2394
3314,9205,2421,2421
3315,9208,2449,2449
3316,9211,2477,2477
3317,9213,2505,2505
3318,9216,2533,2533
3319,9219,2561,2561
3320,9222,2589,2589
3321,9225,2616,2616
3322,9227,2641,2641
3323,9230,2666,2666
3324,9233,2689,2689
3325,9236,2711,2711
3326,9238,2730,2730
3327,9241,2748,2748
3328,9244,2763,2763
3329,9247,2775,2775
3330,9250,2785,2785
3331,9252,2792,2792
3332,9255,2797,2797
3333,9258,2798,2798
3334,9261,2797,2797
3335,9263,2792,2792
3336,9266,2785,2785
3337,9269,2775,2775
3338,9272,2763,2763
3339,9275,2748,2748
3340,9277,2730,2730
3341,9280,2711,2711
3342,9283,2689,2689
3343,9286,2666,2666
3344,9288,2641,2641
3345,9291,2616,2616
3346,9294,2589,2589
3347,9297,2561,2561
3348,9300,2533,2533
3349,9302,2505,2505
3350,9305,2477,2477
3351,9308,2449,2449
3352,9311,2421,2421
3353,9313,2394,2394
3354,9316,2367,2367
3355,9319,2342,2342
3356,9322,2317,2317
3357,9325,2294,2294
3358,9327,2272,2272
3359,9330,2251,2251
3360,9333,2231,2231
3361,9336,2212,2212
3362,9338,2195,2195
3363,9341,2179,2179
3364,9344,2165,2165
3365,9347,2151,2151
3366,9350,2139,2139
3367,9352,2128,2128
3368,9355,2118,2118
3369,9358,2109,2109
3370,9361,2101,2101
3371,9363,2094,2094
3372,9366,2087,2087
3373,9369,2082,2082
3374,9372,2077,2077
3375,9375,2073,2073
3376,9377,2069,2069
3377,9380,2066,2066
3378,9383,2063,2063
3379,9386,2060,2060
3380,9388,2058,2058
3381,9391,2057,2057
3382,9394,2055,2055
3383,9397,2048,2048
3384,9400,2047,2047
3385,9402,2047,2047
3386,9405,2046,2046
3387,9408,2045,2045
3388,9411,2045,2045
3389,9413,2043,2043
3390,9416,2042,2042
3391,9419,2040,2040
3392,9422,2038,2038
3393,9425,2035,2035
3394,9427,2032,2032
3395,9430,2028,2028
3396,9433,2023,2023
3397,9436,2018,2018
3398,9438,2012,2012
3399,9441,2006,2006
3400,9444,1999,1999
3401,9447,1991,1991
3402,9450,1983,1983
3403,9452,1975,1975
3404,9455,1967,1967
3405,9458,1959,1959
3406,9461,1952,1952
3407,9463,1945,1945
3408,9466,1939,1939
3409,9469,1934,1934
3410,9472,1931,1931
3411,9475,1929,1929
3412,9477,1928,1928
3413,9480,1929,1929
3414,9483,1931,1931
3415,9486,1934,1934
3416,9488,1939,1939
3417,9491,1945,1945
3418,9494,2063,2063
3419,9497,2066,2066
3420,9500,2069,2069
3421,9502,2073,2073
3422,9505,2077,2077
3423,9508,2082,2082
3424,9511,2087,2087
3425,9513,2094,2094
3426,9516,2101,2101
3427,9519,2109,2109
3428,9522,2118,2118
3429,9525,2128,2128
3430,9527,2139,2139
3431,9530,2151,2151
3432,9533,2165,2165
3433,9536,2179,2179
3434,9538,2195,2195
3435,9541,2212,2212
3436,9544,2231,2231
3437,9547,2251,2251
3438,9550,2272,2272
3439,9552,2294,2294
3440,9555,2317,2317
3441,9558,2342,2342
3442,9561,2367,2367
3443,9563,2394,2394
3444,9566,2421,2421
3445,9569,2449,2449
3446,9572,2477,2477
3447,9575,2505,2505
3448,9577,2533,2533
3449,9580,2561,2561
3450,9583,2589,2589
3451,9586,2616,2616
3452,9588,2641,2641
3453,9591,2666,2666
3454,9594,2689,2689
3455,9597,2711,2711
3456,9600,2730,2730
3457,9602,2748,2748
3458,9605,2763,2763
3459,9608,2775,2775
3460,9611,2785,2785
3461,9613,2792,2792
3462,9616,2797,2797
3463,9619,2798,2798
3464,9622,2797,2797
3465,9625,2792,2792
3466,9627,2785,2785
3467,9630,2775,2775
3468,9633,2763,2763
3469,9636,2748,2748
3470,9638,2730,2730
3471,9641,2711,2711
3472,9644,2689,2689
3473,9647,2666,2666
3474,9650,2641,2641
3475,9652,2616,2616
3476,9655,2589,2589
3477,9658,2561,2561
3478,9661,2533,2533
3479,9663,2505,2505
3480,9666,2477,2477
3481,9669,2449,2449
3482,9672,2421,2421
3483,9675,2394,2394
3484,9677,2367,2367
3485,9680,2342,2342
3486,9683,2317,2317
3487,9686,2294,2294
3488,9688,2272,2272
3489,9691,2251,2251
3490,9694,2231,2231
3491,9697,2212,2212
3492,9700,2195,2195
3493,9702,2179,2179
3494,9705,2165,2165
3495,9708,2151,2151
3496,9711,2139,2139
3497,9713,2128,2128
3498,9716,2118,2118
3499,9719,2109,2109
3500,9722,2101,2101
3501,9725,2094,2094
3502,9727,2087,2087
3503,9730,2082,2082
3504,9733,2077,2077
3505,9736,2073,2073
3506,9738,2069,2069
3507,9741,2066,2066
3508,9744,2063,2063
3509,9747,2060,2060
3510,9750,2058,2058
3511,9752,2057,2057
3512,9755,2055,2055
3513,9758,2048,2048
3514,9761,2047,2047
3515,9763,2047,2047
3516,9766,2046,2046
3517,9769,2045,2045
3518,9772,2045,2045
3519,9775,2043,2043
3520,9777,2042,2042
3521,9780,2040,2040
3522,9783,2038,2038
3523,9786,2035,2035
3524,9788,2032,2032
3525,9791,2028,2028
3526,9794,2023,2023
3527,9797,2018,2018
3528,9800,2012,2012
3529,9802,2006,2006
3530,9805,1999,1999
3531,9808,1991,1991
3532,9811,1983,1983
3533,9813,1975,1975
3534,9816,1967,1967
3535,9819,1959,1959
3536,9822,1952,1952
3537,9825,1945,1945
3538,9827,1939,1939
3539,9830,1934,1934
3540,9833,1931,1931
3541,9836,1929,1929
3542,9838,1928,1928
3543,9841,1929,1929
3544,9844,1931,1931
3545,9847,1934,1934
3546,9850,1939,1939
3547,9852,1945,1945
3548,9855,2063,2063
3549,9858,2066,2066
3550,9861,2069,2069
3551,9863,2073,2073
3552,9866,2077,2077
3553,9869,2082,2082
3554,9872,2087,2087
3555,9875,2094,2094
3556,9877,2101,2101
3557,9880,2109,2109
3558,9883,2118,2118
3559,9886,2128,2128
3560,9888,2139,2139
3561,9891,2151,2151
3562,9894,2165,2165
3563,9897,2179,2179
3564,9900,2195,2195
3565,9902,2212,2212
3566,9905,2231,2231
3567,9908,2251,2251
3568,9911,2272,2272
3569,9913,2294,2294
3570,9916,2317,2317
3571,9919,2342,2342
3572,9922,2367,2367
3573,9925,2394,2394
3574,9927,2421,2421
3575,9930,2449,2449
3576,9933,2477,2477
3577,9936,2505,2505
3578,9938,2533,2533
3579,9941,2561,2561
3580,9944,2589,2589
3581,9947,2616,2616
3582,9950,2641,2641
3583,9952,2666,2666
3584,9955,2689,2689
3585,9958,2711,2711
3586,9961,2730,2730
3587,9963,2748,2748
3588,9966,2763,2763
3589,9969,2775,2775
3590,9972,2785,2785
3591,9975,2792,2792
3592,9977,2797,2797
3593,9980,2798,2798
3594,9983,2797,2797
3595,9986,2792,2792
3596,9988,2785,2785
3597,9991,2775,2775
3598,9994,2763,2763
3599,9997,2748,2748
3600,10000,2730,2730
3601,10002,2711,2711
3602,10005,2689,2689
3603,10008,2666,2666
3604,10011,2641,2641
3605,10013,2616,2616
3606,10016,2589,2589
3607,10019,2561,2561
3608,10022,2533,2533
3609,10025,2505,2505
3610,10027,2477,2477
3611,10030,2449,2449
3612,10033,2421,2421
3613,10036,2394,2394
3614,10038,2367,2367
3615,10041,2342,2342
3616,10044,2317,2317
3617,10047,2294,2294
3618,10050,2272,2272
3619,10052,2251,2251
3620,10055,2231,2231
3621,10058,2212,2212
3622,10061,2195,2195
3623,10063,2179,2179
3624,10066,2165,2165
3625,10069,2151,2151
3626,10072,2139,2139
3627,10075,2128,2128
3628,10077,2118,2118
3629,10080,2109,2109
3630,10083,2101,2101
3631,10086,2094,2094
3632,10088,2087,2087
3633,10091,2082,2082
3634,10094,2077,2077
3635,10097,2073,2073
3636,10100,2069,2069
3637,10102,2066,2066
3638,10105,2063,2063
3639,10108,2060,2060
3640,10111,2058,2058
3641,10113,2057,2057
3642,10116,2055,2055
3643,10119,2048,2048
3644,10122,2047,2047
3645,10125,2047,2047
3646,10127,2046,2046
3647,10130,2045,2045
3648,10133,2045,2045
3649,10136,2043,2043
3650,10138,2042,2042
3651,10141,2040,2040
3652,10144,2038,2038
3653,10147,2035,2035
3654,10150,2032,2032
3655,10152,2028,2028
3656,10155,2023,2023
3657,10158,2018,2018
3658,10161,2012,2012
3659,10163,2006,2006
3660,10166,1999,1999
3661,10169,1991,1991
3662,10172,1983,1983
3663,10175,1975,1975
3664,10177,1967,1967
3665,10180,1959,1959
3666,10183,1952,1952
3667,10186,1945,1945
3668,10188,1939,1939
3669,10191,1934,1934
3670,10194,1931,1931
3671,10197,1929,1929
3672,10200,1928,1928
3673,10202,1929,1929
3674,10205,1931,1931
3675,10208,1934,1934
3676,10211,1939,1939
3677,10213,1945,1945
3678,10216,2063,2063
3679,10219,2066,2066
3680,10222,2069,2069
3681,10225,2073,2073
3682,10227,2077,2077
3683,10230,2082,2082
3684,10233,2087,2087
3685,10236,2094,2094
3686,10238,2101,2101
3687,10241,2109,2109
3688,10244,2118,2118
3689,10247,2128,2128
3690,10250,2139,2139
3691,10252,2151,2151
3692,10255,2165,2165
3693,10258,2179,2179
3694,10261,2195,2195
3695,10263,2212,2212
3696,10266,2231,2231
3697,10269,2251,2251
3698,10272,2272,2272
3699,10275,2294,2294
3700,10277,2317,2317
3701,10280,2342,2342
3702,10283,2367,2367
3703,10286,2394,2394
3704,10288,2421,2421
3705,10291,2449,2449
3706,10294,2477,2477
3707,10297,2505,2505
3708,10300,2533,2533
3709,10302,2561,2561
3710,10305,2589,2589
3711,10308,2616,2616
3712,10311,2641,2641
3713,10313,2666,2666
3714,10316,2689,2689
3715,10319,2711,2711
3716,10322,2730,2730
3717,10325,2748,2748
3718,10327,2763,2763
3719,10330,2775,2775
3720,10333,2785,2785
3721,10336,2792,2792
3722,10338,2797,2797
3723,10341,2798,2798
3724,10344,2797,2797
3725,10347,2792,2792
3726,10350,2785,2785
3727,10352,2775,2775
3728,10355,2763,2763
3729,10358,2748,2748
3730,10361,2730,2730
3731,10363,2711,2711
3732,10366,2689,2689
3733,10369,2666,2666
3734,10372,2641,2641
3735,10375,2616,2616
3736,10377,2589,2589
3737,10380,2561,2561
3738,10383,2533,2533
3739,10386,2505,2505
3740,10388,2477,2477
3741,10391,2449,2449
3742,10394,2421,2421
3743,10397,2394,2394
3744,10400,2367,2367
3745,10402,2342,2342
3746,10405,2317,2317
3747,10408,2294,2294
3748,10411,2272,2272
3749,10413,2251,2251
3750,10416,2231,2231
3751,10419,2212,2212
3752,10422,2195,2195
3753,10425,2179,2179
3754,10427,2165,2165
3755,10430,2151,2151
3756,10433,2139,2139
3757,10436,2128,2128
3758,10438,2118,2118
3759,10441,2109,2109
3760,10444,2101,2101
3761,10447,2094,2094
3762,10450,2087,2087
3763,10452,2082,2082
3764,10455,2077,2077
3765,10458,2073,2073
3766,10461,2069,2069
3767,10463,2066,2066
3768,10466,2063,2063
3769,10469,2060,2060
3770,10472,2058,2058
3771,10475,2057,2057
3772,10477,2055,2055
3773,10480,2048,2048
3774,10483,2047,2047
3775,10486,2047,2047
3776,10488,2046,2046
3777,10491,2045,2045
3778,10494,2045,2045
3779,10497,2043,2043
3780,10500,2042,2042
3781,10502,2040,2040
3782,10505,2038,2038
3783,10508,2035,2035
3784,10511,2032,2032
3785,10513,2028,2028
3786,10516,2023,2023
3787,10519,2018,2018
3788,10522,2012,2012
3789,10525,2006,2006
3790,10527,1999,1999
3791,10530,1991,1991
3792,10533,1983,1983
3793,10536,1975,1975
3794,10538,1967,1967
3795,10541,1959,1959
3796,10544,1952,1952
3797,10547,1945,1945
3798,10550,1939,1939
3799,10552,1934,1934
3800,10555,1931,1931
3801,10558,1929,1929
3802,10561,1928,1928
3803,10563,1929,1929
3804,10566,1931,1931
3805,10569,1934,1934
3806,10572,1939,1939
3807,10575,1945,1945
3808,10577,2063,2063
3809,10580,2066,2066
3810,10583,2069,2069
3811,10586,2073,2073
3812,10588,2077,2077
3813,10591,2082,2082
3814,10594,2087,2087
3815,10597,2094,2094
3816,10600,2101,2101
3817,10602,2109,2109
3818,10605,2118,2118
3819,10608,2128,2128
3820,10611,2139,2139
3821,10613,2151,2151
3822,10616,2165,2165
3823,10619,2179,2179
3824,10622,2195,2195
3825,10625,2212,2212
3826,10627,2231,2231
3827,10630,2251,2251
3828,10633,2272,2272
3829,10636,2294,2294
3830,10638,2317,2317
3831,10641,2342,2342
3832,10644,2367,2367
3833,10647,2394,2394
3834,10650,2421,2421
3835,10652,2449,2449
3836,10655,2477,2477
3837,10658,2505,2505
3838,10661,2533,2533
3839,10663,2561,2561
3840,10666,2589,2589
3841,10669,2616,2616
3842,10672,2641,2641
3843,10675,2666,2666
3844,10677,2689,2689
3845,10680,2711,2711
3846,10683,2730,2730
3847,10686,2748,2748
3848,10688,2763,2763
3849,10691,2775,2775
3850,10694,2785,2785
3851,10697,2792,2792
3852,10700,2797,2797
3853,10702,2798,2798
3854,10705,2797,2797
3855,10708,2792,2792
3856,10711,2785,2785
3857,10713,2775,2775
3858,10716,2763,2763
3859,10719,2748,2748
3860,10722,2730,2730
3861,10725,2711,2711
3862,10727,2689,2689
3863,10730,2666,2666
3864,10733,2641,2641
3865,10736,2616,2616
3866,10738,2589,2589
3867,10741,2561,2561
3868,10744,2533,2533
3869,10747,2505,2505
3870,10750,2477,2477
3871,10752,2449,2449
3872,10755,2421,2421
3873,10758,2394,2394
3874,10761,2367,2367
3875,10763,2342,2342
3876,10766,2317,2317
3877,10769,2294,2294
3878,10772,2272,2272
3879,10775,2251,2251
3880,10777,2231,2231
3881,10780,2212,2212
3882,10783,2195,2195
3883,10786,2179,2179
3884,10788,2165,2165
3885,10791,2151,2151
3886,10794,2139,2139
3887,10797,2128,2128
3888,10800,2118,2118
3889,10802,2109,2109
3890,10805,2101,2101
3891,10808,2094,2094
3892,10811,2087,2087
3893,10813,2082,2082
3894,10816,2077,2077
3895,10819,2073,2073
3896,10822,2069,2069
3897,10825,2066,2066
3898,10827,2063,2063
3899,10830,2060,2060
3900,10833,2058,2058
3901,10836,2057,2057
3902,10838,2055,2055
3903,10841,2048,2048
3904,10844,2047,2047
3905,10847,2047,2047
3906,10850,2046,2046
3907,10852,2045,2045
3908,10855,2045,2045
3909,10858,2043,2043
3910,10861,2042,2042
3911,10863,2040,2040
3912,10866,2038,2038
3913,10869,2035,2035
3914,10872,2032,2032
3915,10875,2028,2028
3916,10877,2023,2023
3917,10880,2018,2018
3918,10883,2012,2012
3919,10886,2006,2006
3920,10888,1999,1999
3921,10891,1991,1991
3922,10894,1983,1983
3923,10897,1975,1975
3924,10900,1967,1967
3925,10902,1959,1959
3926,10905,1952,1952
3927,10908,1945,1945
3928,10911,1939,1939
3929,10913,1934,1934
3930,10916,1931,1931
3931,10919,1929,1929
3932,10922,1928,1928
3933,10925,1929,1929
3934,10927,1931,1931
3935,10930,1934,1934
3936,10933,1939,1939
3937,10936,1945,1945
3938,10938,2063,2063
3939,10941,2066,2066
3940,10944,2069,2069
3941,10947,2073,2073
3942,10950,2077,2077
3943,10952,2082,2082
3944,10955,2087,2087
3945,10958,2094,2094
3946,10961,2101,2101
3947,10963,2109,2109
3948,10966,2118,2118
3949,10969,2128,2128
3950,10972,2139,2139
3951,10975,2151,2151
3952,10977,2165,2165
3953,10980,2179,2179
3954,10983,2195,2195
3955,10986,2212,2212
3956,10988,2231,2231
3957,10991,2251,2251
3958,10994,2272,2272
3959,10997,2294,2294
3960,11000,2317,2317
3961,11002,2342,2342
3962,11005,2367,2367
3963,11008,2394,2394
3964,11011,2421,2421
3965,11013,2449,2449
3966,11016,2477,2477
3967,11019,2505,2505
3968,11022,2533,2533
3969,11025,2561,2561
3970,11027,2589,2589
3971,11030,2616,2616
3972,11033,2641,2641
3973,11036,2666,2666
3974,11038,2689,2689
3975,11041,2711,2711
3976,11044,2730,2730
3977,11047,2748,2748
3978,11050,2763,2763
3979,11052,2775,2775
3980,11055,2785,2785
3981,11058,2792,2792
3982,11061,2797,2797
3983,11063,2798,2798
3984,11066,2797,2797
3985,11069,2792,2792
3986,11072,2785,2785
3987,11075,2775,2775
3988,11077,2763,2763
3989,11080,2748,2748
3990,11083,2730,2730
3991,11086,2711,2711
3992,11088,2689,2689
3993,11091,2666,2666
3994,11094,2641,2641
3995,11097,2616,2616
3996,11100,2589,2589
3997,11102,2561,2561
3998,11105,2533,2533
3999,11108,2505,2505
4000,11111,2477,2477
4001,11113,2449,2449
4002,11116,2421,2421
4003,11119,2394,2394
4004,11122,2367,2367
4005,11125,2342,2342
4006,11127,2317,2317
4007,11130,2294,2294
4008,11133,2272,2272
4009,11136,2251,2251
4010,11138,2231,2231
4011,11141,2212,2212
4012,11144,2195,2195
4013,11147,2179,2179
4014,11150,2165,2165
4015,11152,2151,2151
4016,11155,2139,2139
4017,11158,2128,2128
4018,11161,2118,2118
4019,11163,2109,2109
4020,11166,2101,2101
4021,11169,2094,2094
4022,11172,2087,2087
4023,11175,2082,2082
4024,11177,2077,2077
4025,11180,2073,2073
4026,11183,2069,2069
4027,11186,2066,2066
4028,11188,2063,2063
4029,11191,2060,2060
4030,11194,2058,2058
4031,11197,2057,2057
4032,11200,2055,2055
4033,11202,2048,2048
4034,11205,2047,2047
4035,11208,2047,2047
4036,11211,2046,2046
4037,11213,2045,2045
4038,11216,2045,2045
4039,11219,2043,2043
4040,11222,2042,2042
4041,11225,2040,2040
4042,11227,2038,2038
4043,11230,2035,2035
4044,11233,2032,2032
4045,11236,2028,2028
4046,11238,2023,2023
4047,11241,2018,2018
4048,11244,2012,2012
4049,11247,2006,2006
4050,11250,1999,1999
4051,11252,1991,1991
4052,11255,1983,1983
4053,11258,1975,1975
4054,11261,1967,1967
4055,11263,1959,1959
4056,11266,1952,1952
4057,11269,1945,1945
4058,11272,1939,1939
4059,11275,1934,1934
4060,11277,1931,1931
4061,11280,1929,1929
4062,11283,1928,1928
4063,11286,1929,1929
4064,11288,1931,1931
4065,11291,1934,1934
4066,11294,1939,1939
4067,11297,1945,1945
4068,11300,2063,2063
4069,11302,2066,2066
4070,11305,2069,2069
4071,11308,2073,2073
4072,11311,2077,2077
4073,11313,2082,2082
4074,11316,2087,2087
4075,11319,2094,2094
4076,11322,2101,2101
4077,11325,2109,2109
4078,11327,2118,2118
4079,11330,2128,2128
4080,11333,2139,2139
4081,11336,2151,2151
4082,11338,2165,2165
4083,11341,2179,2179
4084,11344,2195,2195
4085,11347,2212,2212
4086,11350,2231,2231
4087,11352,2251,2251
4088,11355,2272,2272
4089,11358,2294,2294
4090,11361,2317,2317
4091,11363,2342,2342
4092,11366,2367,2367
4093,11369,2394,2394
4094,11372,2421,2421
4095,11375,2449,2449
4096,11377,2477,2477
4097,11380,2505,2505
4098,11383,2533,2533
4099,11386,2561,2561
4100,11388,2589,2589
4101,11391,2616,2616
4102,11394,2641,2641
4103,11397,2666,2666
4104,11400,2689,2689
4105,11402,2711,2711
4106,11405,2730,2730
4107,11408,2748,2748
4108,11411,2763,2763
4109,11413,2775,2775
4110,11416,2785,2785
4111,11419,2792,2792
4112,11422,2797,2797
4113,11425,2798,2798
4114,11427,2797,2797
4115,11430,2792,2792
4116,11433,2785,2785
4117,11436,2775,2775
4118,11438,2763,2763
4119,11441,2748,2748
4120,11444,2730,2730
4121,11447,2711,2711
4122,11450,2689,2689
4123,11452,2666,2666
4124,11455,2641,2641
4125,11458,2616,2616
4126,11461,2589,2589
4127,11463,2561,2561
4128,11466,2533,2533
4129,11469,2505,2505
4130,11472,2477,2477
4131,11475,2449,2449
4132,11477,2421,2421
4133,11480,2394,2394
4134,11483,2367,2367
4135,11486,2342,2342
4136,11488,2317,2317
4137,11491,2294,2294
4138,11494,2272,2272
4139,11497,2251,2251
4140,11500,2231,2231
4141,11502,2212,2212
4142,11505,2195,2195
4143,11508,2179,2179
4144,11511,2165,2165
4145,11513,2151,2151
4146,11516,2139,2139
4147,11519,2128,2128
4148,11522,2118,2118
4149,11525,2109,2109
4150,11527,2101,2101
4151,11530,2094,2094
4152,11533,2087,2087
4153,11536,2082,2082
4154,11538,2077,2077
4155,11541,2073,2073
4156,11544,2069,2069
4157,11547,2066,2066
4158,11550,2063,2063
4159,11552,2060,2060
4160,11555,2058,2058
4161,11558,2057,2057
4162,11561,2055,2055
4163,11563,2048,2048
4164,11566,2047,2047
4165,11569,2047,2047
4166,11572,2046,2046
4167,11575,2045,2045
4168,11577,2045,2045
4169,11580,2043,2043
4170,11583,2042,2042
4171,11586,2040,2040
4172,11588,2038,2038
4173,11591,2035,2035
4174,11594,2032,2032
4175,11597,2028,2028
4176,11600,2023,2023
4177,11602,2018,2018
4178,11605,2012,2012
4179,11608,2006,2006
4180,11611,1999,1999
4181,11613,1991,1991
4182,11616,1983,1983
4183,11619,1975,1975
4184,11622,1967,1967
4185,11625,1959,1959
4186,11627,1952,1952
4187,11630,1945,1945
4188,11633,1939,1939
4189,11636,1934,1934
4190,11638,1931,1931
4191,11641,1929,1929
4192,11644,1928,1928
4193,11647,1929,1929
4194,11650,1931,1931
4195,11652,1934,1934
4196,11655,1939,1939
4197,11658,1945,1945
4198,11661,2063,2063
4199,11663,2066,2066
4200,11666,2069,2069
4201,11669,2073,2073
4202,11672,2077,2077
4203,11675,2082,2082
4204,11677,2087,2087
4205,11680,2094,2094
4206,11683,2101,2101
4207,11686,2109,2109
4208,11688,2118,2118
4209,11691,2128,2128
4210,11694,2139,2139
4211,11697,2151,2151
4212,11700,2165,2165
4213,11702,2179,2179
4214,11705,2195,2195
4215,11708,2212,2212
4216,11711,2231,2231
4217,11713,2251,2251
4218,11716,2272,2272
4219,11719,2294,2294
4220,11722,2317,2317
4221,11725,2342,2342
4222,11727,2367,2367
4223,11730,2394,2394
4224,11733,2421,2421
4225,11736,2449,2449
4226,11738,2477,2477
4227,11741,2505,2505
4228,11744,2533,2533
4229,11747,2561,2561
4230,11750,2589,2589
4231,11752,2616,2616
4232,11755,2641,2641
4233,11758,2666,2666
4234,11761,2689,2689
4235,11763,2711,2711
4236,11766,2730,2730
4237,11769,2748,2748
4238,11772,2763,2763
4239,11775,2775,2775
4240,11777,2785,2785
4241,11780,2792,2792
4242,11783,2797,2797
4243,11786,2798,2798
4244,11788,2797,2797
4245,11791,2792,2792
4246,11794,2785,2785
4247,11797,2775,2775
4248,11800,2763,2763
4249,11802,2748,2748
4250,11805,2730,2730
4251,11808,2711,2711
4252,11811,2689,2689
4253,11813,2666,2666
4254,11816,2641,2641
4255,11819,2616,2616
4256,11822,2589,2589
4257,11825,2561,2561
4258,11827,2533,2533
4259,11830,2505,2505
4260,11833,2477,2477
4261,11836,2449,2449
4262,11838,2421,2421
4263,11841,2394,2394
4264,11844,2367,2367
4265,11847,2342,2342
4266,11850,2317,2317
4267,11852,2294,2294
4268,11855,2272,2272
4269,11858,2251,2251
4270,11861,2231,2231
4271,11863,2212,2212
4272,11866,2195,2195
4273,11869,2179,2179
4274,11872,2165,2165
4275,11875,2151,2151
4276,11877,2139,2139
4277,11880,2128,2128
4278,11883,2118,2118
4279,11886,2109,2109
4280,11888,2101,2101
4281,11891,2094,2094
4282,11894,2087,2087
4283,11897,2082,2082
4284,11900,2077,2077
4285,11902,2073,2073
4286,11905,2069,2069
4287,11908,2066,2066
4288,11911,2063,2063
4289,11913,2060,2060
4290,11916,2058,2058
4291,11919,2057,2057
4292,11922,2055,2055
4293,11925,2048,2048
4294,11927,2047,2047
4295,11930,2047,2047
4296,11933,2046,2046
4297,11936,2045,2045
4298,11938,2045,2045
4299,11941,2043,2043
4300,11944,2042,2042
4301,11947,2040,2040
4302,11950,2038,2038
4303,11952,2035,2035
4304,11955,2032,2032
4305,11958,2028,2028
4306,11961,2023,2023
4307,11963,2018,2018
4308,11966,2012,2012
4309,11969,2006,2006
4310,11972,1999,1999
4311,11975,1991,1991
4312,11977,1983,1983
4313,11980,1975,1975
4314,11983,1967,1967
4315,11986,1959,1959
4316,11988,1952,1952
4317,11991,1945,1945
4318,11994,1939,1939
4319,11997,1934,1934
4320,12000,1931,1931
4321,12002,1929,1929
4322,12005,1928,1928
4323,12008,1929,1929
4324,12011,1931,1931
4325,12013,1934,1934
4326,12016,1939,1939
4327,12019,1945,1945
4328,12022,2063,2063
4329,12025,2066,2066
4330,12027,2069,2069
4331,12030,2073,2073
4332,12033,2077,2077
4333,12036,2082,2082
4334,12038,2087,2087
4335,12041,2094,2094
4336,12044,2101,2101
4337,12047,2109,2109
4338,12050,2118,2118
4339,12052,2128,2128
4340,12055,2139,2139
4341,12058,2151,2151
4342,12061,2165,2165
4343,12063,2179,2179
4344,12066,2195,2195
4345,12069,2212,2212
4346,12072,2231,2231
4347,12075,2251,2251
4348,12077,2272,2272
4349,12080,2294,2294
4350,12083,2317,2317
4351,12086,2342,2342
4352,12088,2367,2367
4353,12091,2394,2394
4354,12094,2421,2421
4355,12097,2449,2449
4356,12100,2477,2477
4357,12102,2505,2505
4358,12105,2533,2533
4359,12108,2561,2561
4360,12111,2589,2589
4361,12113,2616,2616
4362,12116,2641,2641
4363,12119,2666,2666
4364,12122,2689,2689
4365,12125,2711,2711
4366,12127,2730,2730
4367,12130,2748,2748
4368,12133,2763,2763
4369,12136,2775,2775
4370,12138,2785,2785
4371,12141,2792,2792
4372,12144,2797,2797
4373,12147,2798,2798
4374,12150,2797,2797
4375,12152,2792,2792
4376,12155,2785,2785
4377,12158,2775,2775
4378,12161,2763,2763
4379,12163,2748,2748
4380,12166,2730,2730
4381,12169,2711,2711
4382,12172,2689,2689
4383,12175,2666,2666
4384,12177,2641,2641
4385,12180,2616,2616
4386,12183,2589,2589
4387,12186,2561,2561
4388,12188,2533,2533
4389,12191,2505,2505
4390,12194,2477,2477
4391,12197,2449,2449
4392,12200,2421,2421
4393,12202,2394,2394
4394,12205,2367,2367
4395,12208,2342,2342
4396,12211,2317,2317
4397,12213,2294,2294
4398,12216,2272,2272
4399,12219,2251,2251
4400,12222,2231,2231
4401,12225,2212,2212
4402,12227,2195,2195
4403,12230,2179,2179
4404,12233,2165,2165
4405,12236,2151,2151
4406,12238,2139,2139
4407,12241,2128,2128
4408,12244,2118,2118
4409,12247,2109,2109
4410,12250,2101,2101
4411,12252,2094,2094
4412,12255,2087,2087
4413,12258,2082,2082
4414,12261,2077,2077
4415,12263,2073,2073
4416,12266,2069,2069
4417,12269,2066,2066
4418,12272,2063,2063
4419,12275,2060,2060
4420,12277,2058,2058
4421,12280,2057,2057
4422,12283,2055,2055
4423,12286,2048,2048
4424,12288,2047,2047
4425,12291,2047,2047
4426,12294,2046,2046
4427,12297,2045,2045
4428,12300,2045,2045
4429,12302,2043,2043
4430,12305,2042,2042
4431,12308,2040,2040
4432,12311,2038,2038
4433,12313,2035,2035
4434,12316,2032,2032
4435,12319,2028,2028
4436,12322,2023,2023
4437,12325,2018,2018
4438,12327,2012,2012
4439,12330,2006,2006
4440,12333,1999,1999
4441,12336,1991,1991
4442,12338,1983,1983
4443,12341,1975,1975
4444,12344,1967,1967
4445,12347,1959,1959
4446,12350,1952,1952
4447,12352,1945,1945
4448,12355,1939,1939
4449,12358,1934,1934
4450,12361,1931,1931
4451,12363,1929,1929
4452,12366,1928,1928
4453,12369,1929,1929
4454,12372,1931,1931
4455,12375,1934,1934
4456,12377,1939,1939
4457,12380,1945,1945
4458,12383,2063,2063
4459,12386,2066,2066
4460,12388,2069,2069
4461,12391,2073,2073
4462,12394,2077,2077
4463,12397,2082,2082
4464,12400,2087,2087
4465,12402,2094,2094
4466,12405,2101,2101
4467,12408,2109,2109
4468,12411,2118,2118
4469,12413,2128,2128
4470,12416,2139,2139
4471,12419,2151,2151
4472,12422,2165,2165
4473,12425,2179,2179
4474,12427,2195,2195
4475,12430,2212,2212
4476,12433,2231,2231
4477,12436,2251,2251
4478,12438,2272,2272
4479,12441,2294,2294
4480,12444,2317,2317
4481,12447,2342,2342
4482,12450,2367,2367
4483,12452,2394,2394
4484,12455,2421,2421
4485,12458,2449,2449
4486,12461,2477,2477
4487,12463,2505,2505
4488,12466,2533,2533
4489,12469,2561,2561
4490,12472,2589,2589
4491,12475,2616,2616
4492,12477,2641,2641
4493,12480,2666,2666
4494,12483,2689,2689
4495,12486,2711,2711
4496,12488,2730,2730
4497,12491,2748,2748
4498,12494,2763,2763
4499,12497,2775,2775
4500,12500,2785,2785
4501,12502,2792,2792
4502,12505,2797,2797
4503,12508,2798,2798
4504,12511,2797,2797
4505,12513,2792,2792
4506,12516,2785,2785
4507,12519,2775,2775
4508,12522,2763,2763
4509,12525,2748,2748
4510,12527,2730,2730
4511,12530,2711,2711
4512,12533,2689,2689
4513,12536,2666,2666
4514,12538,2641,2641
4515,12541,2616,2616
4516,12544,2589,2589
4517,12547,2561,2561
4518,12550,2533,2533
4519,12552,2505,2505
4520,12555,2477,2477
4521,12558,2449,2449
4522,12561,2421,2421
4523,12563,2394,2394
4524,12566,2367,2367
4525,12569,2342,2342
4526,12572,2317,2317
4527,12575,2294,2294
4528,12577,2272,2272
4529,12580,2251,2251
4530,12583,2231,2231
4531,12586,2212,2212
4532,12588,2195,2195
4533,12591,2179,2179
4534,12594,2165,2165
4535,12597,2151,2151
4536,12600,2139,2139
4537,12602,2128,2128
4538,12605,2118,2118
4539,12608,2109,2109
4540,12611,2101,2101
4541,12613,2094,2094
4542,12616,2087,2087
4543,12619,2082,2082
4544,12622,2077,2077
4545,12625,2073,2073
4546,12627,2069,2069
4547,12630,2066,2066
4548,12633,2063,2063
4549,12636,2060,2060
4550,12638,2058,2058
4551,12641,2057,2057
4552,12644,2055,2055
4553,12647,2048,2048
4554,12650,2047,2047
4555,12652,2047,2047
4556,12655,2046,2046
4557,12658,2045,2045
4558,12661,2045,2045
4559,12663,2043,2043
4560,12666,2042,2042
4561,12669,2040,2040
4562,12672,2038,2038
4563,12675,2035,2035
4564,12677,2032,2032
4565,12680,2028,2028
4566,12683,2023,2023
4567,12686,2018,2018
4568,12688,2012,2012
4569,12691,2006,2006
4570,12694,1999,1999
4571,12697,1991,1991
4572,12700,1983,1983
4573,12702,1975,1975
4574,12705,1967,1967
4575,12708,1959,1959
4576,12711,1952,1952
4577,12713,1945,1945
4578,12716,1939,1939
4579,12719,1934,1934
4580,12722,1931,1931
4581,12725,1929,1929
4582,12727,1928,1928
4583,12730,1929,1929
4584,12733,1931,1931
4585,12736,1934,1934
4586,12738,1939,1939
4587,12741,1945,1945
4588,12744,2063,2063
4589,12747,2066,2066
4590,12750,2069,2069
4591,12752,2073,2073
4592,12755,2077,2077
4593,12758,2082,2082
4594,12761,2087,2087
4595,12763,2094,2094
4596,12766,2101,2101
4597,12769,2109,2109
4598,12772,2118,2118
4599,12775,2128,2128
4600,12777,2139,2139
4601,12780,2151,2151
4602,12783,2165,2165
4603,12786,2179,2179
4604,12788,2195,2195
4605,12791,2212,2212
4606,12794,2231,2231
4607,12797,2251,2251
4608,12800,2272,2272
4609,12802,2294,2294
4610,12805,2317,2317
4611,12808,2342,2342
4612,12811,2367,2367
4613,12813,2394,2394
4614,12816,2421,2421
4615,12819,2449,2449
4616,12822,2477,2477
4617,12825,2505,2505
4618,12827,2533,2533
4619,12830,2561,2561
4620,12833,2589,2589
4621,12836,2616,2616
4622,12838,2641,2641
4623,12841,2666,2666
4624,12844,2689,2689
4625,12847,2711,2711
4626,12850,2730,2730
4627,12852,2748,2748
4628,12855,2763,2763
4629,12858,2775,2775
4630,12861,2785,2785
4631,12863,2792,2792
4632,12866,2797,2797
4633,12869,2798,2798
4634,12872,2797,2797
4635,12875,2792,2792
4636,12877,2785,2785
4637,12880,2775,2775
4638,12883,2763,2763
4639,12886,2748,2748
4640,12888,2730,2730
4641,12891,2711,2711
4642,12894,2689,2689
4643,12897,2666,2666
4644,12900,2641,2641
4645,12902,2616,2616
4646,12905,2589,2589
4647,12908,2561,2561
4648,12911,2533,2533
4649,12913,2505,2505
4650,12916,2477,2477
4651,12919,2449,2449
4652,12922,2421,2421
4653,12925,2394,2394
4654,12927,2367,2367
4655,12930,2342,2342
4656,12933,2317,2317
4657,12936,2294,2294
4658,12938,2272,2272
4659,12941,2251,2251
4660,12944,2231,2231
4661,12947,2212,2212
4662,12950,2195,2195
4663,12952,2179,2179
4664,12955,2165,2165
4665,12958,2151,2151
4666,12961,2139,2139
4667,12963,2128,2128
4668,12966,2118,2118
4669,12969,2109,2109
4670,12972,2101,2101
4671,12975,2094,2094
4672,12977,2087,2087
4673,12980,2082,2082
4674,12983,2077,2077
4675,12986,2073,2073
4676,12988,2069,2069
4677,12991,2066,2066
4678,12994,2063,2063
4679,12997,2060,2060
4680,13000,2058,2058
4681,13002,2057,2057
4682,13005,2055,2055
4683,13008,2048,2048
4684,13011,2047,2047
4685,13013,2047,2047
4686,13016,2046,2046
4687,13019,2045,2045
4688,13022,2045,2045
4689,13025,2043,2043
4690,13027,2042,2042
4691,13030,2040,2040
4692,13033,2038,2038
4693,13036,2035,2035
4694,13038,2032,2032
4695,13041,2028,2028
4696,13044,2023,2023
4697,13047,2018,2018
4698,13050,2012,2012
4699,13052,2006,2006
4700,13055,1999,1999
4701,13058,1991,1991
4702,13061,1983,1983
4703,13063,1975,1975
4704,13066,1967,1967
4705,13069,1959,1959
4706,13072,1952,1952
4707,13075,1945,1945
4708,13077,1939,1939
4709,13080,1934,1934
4710,13083,1931,1931
4711,13086,1929,1929
4712,13088,1928,1928
4713,13091,1929,1929
4714,13094,1931,1931
4715,13097,1934,1934
4716,13100,1939,1939
4717,13102,1945,1945
4718,13105,2063,2063
4719,13108,2066,2066
4720,13111,2069,2069
4721,13113,2073,2073
4722,13116,2077,2077
4723,13119,2082,2082
4724,13122,2087,2087
4725,13125,2094,2094
4726,13127,2101,2101
4727,13130,2109,2109
4728,13133,2118,2118
4729,13136,2128,2128
4730,13138,2139,2139
4731,13141,2151,2151
4732,13144,2165,2165
4733,13147,2179,2179
4734,13150,2195,2195
4735,13152,2212,2212
4736,13155,2231,2231
4737,13158,2251,2251
4738,13161,2272,2272
4739,13163,2294,2294
4740,13166,2317,2317
4741,13169,2342,2342
4742,13172,2367,2367
4743,13175,2394,2394
4744,13177,2421,2421
4745,13180,2449,2449
4746,13183,2477,2477
4747,13186,2505,2505
4748,13188,2533,2533
4749,13191,2561,2561
4750,13194,2589,2589
4751,13197,2616,2616
4752,13200,2641,2641
4753,13202,2666,2666
4754,13205,2689,2689
4755,13208,2711,2711
4756,13211,2730,2730
4757,13213,2748,2748
4758,13216,2763,2763
4759,13219,2775,2775
4760,13222,2785,2785
4761,13225,2792,2792
4762,13227,2797,2797
4763,13230,2798,2798
4764,13233,2797,2797
4765,13236,2792,2792
4766,13238,2785,2785
4767,13241,2775,2775
4768,13244,2763,2763
4769,13247,2748,2748
4770,13250,2730,2730
4771,13252,2711,2711
4772,13255,2689,2689
4773,13258,2666,2666
4774,13261,2641,2641
4775,13263,2616,2616
4776,13266,2589,2589
4777,13269,2561,2561
4778,13272,2533,2533
4779,13275,2505,2505
4780,13277,2477,2477
4781,13280,2449,2449
4782,13283,2421,2421
4783,13286,2394,2394
4784,13288,2367,2367
4785,13291,2342,2342
4786,13294,2317,2317
4787,13297,2294,2294
4788,13300,2272,2272
4789,13302,2251,2251
4790,13305,2231,2231
4791,13308,2212,2212
4792,13311,2195,2195
4793,13313,2179,2179
4794,13316,2165,2165
4795,13319,2151,2151
4796,13322,2139,2139
4797,13325,2128,2128
4798,13327,2118,2118
4799,13330,2109,2109
4800,13333,2101,2101
4801,13336,2094,2094
4802,13338,2087,2087
4803,13341,2082,2082
4804,13344,2077,2077
4805,13347,2073,2073
4806,13350,2069,2069
4807,13352,2066,2066
4808,13355,2063,2063
4809,13358,2060,2060
4810,13361,2058,2058
4811,13363,2057,2057
4812,13366,2055,2055
4813,13369,2048,2048
4814,13372,2047,2047
4815,13375,2047,2047
4816,13377,2046,2046
4817,13380,2045,2045
4818,13383,2045,2045
4819,13386,2043,2043
4820,13388,2042,2042
4821,13391,2040,2040
4822,13394,2038,2038
4823,13397,2035,2035
4824,13400,2032,2032
4825,13402,2028,2028
4826,13405,2023,2023
4827,13408,2018,2018
4828,13411,2012,2012
4829,13413,2006,2006
4830,13416,1999,1999
4831,13419,1991,1991
4832,13422,1983,1983
4833,13425,1975,1975
4834,13427,1967,1967
4835,13430,1959,1959
4836,13433,1952,1952
4837,13436,1945,1945
4838,13438,1939,1939
4839,13441,1934,1934
4840,13444,1931,1931
4841,13447,1929,1929
4842,13450,1928,1928
4843,13452,1929,1929
4844,13455,1931,1931
4845,13458,1934,1934
4846,13461,1939,1939
4847,13463,1945,1945
4848,13466,2063,2063
4849,13469,2066,2066
4850,13472,2069,2069
4851,13475,2073,2073
4852,13477,2077,2077
4853,13480,2082,2082
4854,13483,2087,2087
4855,13486,2094,2094
4856,13488,2101,2101
4857,13491,2109,2109
4858,13494,2118,2118
4859,13497,2128,2128
4860,13500,2139,2139
4861,13502,2151,2151
4862,13505,2165,2165
4863,13508,2179,2179
4864,13511,2195,2195
4865,13513,2212,2212
4866,13516,2231,2231
4867,13519,2251,2251
4868,13522,2272,2272
4869,13525,2294,2294
4870,13527,2317,2317
4871,13530,2342,2342
4872,13533,2367,2367
4873,13536,2394,2394
4874,13538,2421,2421
4875,13541,2449,2449
4876,13544,2477,2477
4877,13547,2505,2505
4878,13550,2533,2533
4879,13552,2561,2561
4880,13555,2589,2589
4881,13558,2616,2616
4882,13561,2641,2641
4883,13563,2666,2666
4884,13566,2689,2689
4885,13569,2711,2711
4886,13572,2730,2730
4887,13575,2748,2748
4888,13577,2763,2763
4889,13580,2775,2775
4890,13583,2785,2785
4891,13586,2792,2792
4892,13588,2797,2797
4893,13591,2798,2798
4894,13594,2797,2797
4895,13597,2792,2792
4896,13600,2785,2785
4897,13602,2775,2775
4898,13605,2763,2763
4899,13608,2748,2748
4900,13611,2730,2730
4901,13613,2711,2711
4902,13616,2689,2689
4903,13619,2666,2666
4904,13622,2641,2641
4905,13625,2616,2616
4906,13627,2589,2589
4907,13630,2561,2561
4908,13633,2533,2533
4909,13636,2505,2505
4910,13638,2477,2477
4911,13641,2449,2449
4912,13644,2421,2421
4913,13647,2394,2394
4914,13650,2367,2367
4915,13652,2342,2342
4916,13655,2317,2317
4917,13658,2294,2294
4918,13661,2272,2272
4919,13663,2251,2251
4920,13666,2231,2231
4921,13669,2212,2212
4922,13672,2195,2195
4923,13675,2179,2179
4924,13677,2165,2165
4925,13680,2151,2151
4926,13683,2139,2139
4927,13686,2128,2128
4928,13688,2118,2118
4929,13691,2109,2109
4930,13694,2101,2101
4931,13697,2094,2094
4932,13700,2087,2087
4933,13702,2082,2082
4934,13705,2077,2077
4935,13708,2073,2073
4936,13711,2069,2069
4937,13713,2066,2066
4938,13716,2063,2063
4939,13719,2060,2060
4940,13722,2058,2058
4941,13725,2057,2057
4942,13727,2055,2055
4943,13730,2048,2048
4944,13733,2047,2047
4945,13736,2047,2047
4946,13738,2046,2046
4947,13741,2045,2045
4948,13744,2045,2045
4949,13747,2043,2043
4950,13750,2042,2042
4951,13752,2040,2040
4952,13755,2038,2038
4953,13758,2035,2035
4954,13761,2032,2032
4955,13763,2028,2028
4956,13766,2023,2023
4957,13769,2018,2018
4958,13772,2012,2012
4959,13775,2006,2006
4960,13777,1999,1999
4961,13780,1991,1991
4962,13783,1983,1983
4963,13786,1975,1975
4964,13788,1967,1967
4965,13791,1959,1959
4966,13794,1952,1952
4967,13797,1945,1945
4968,13800,1939,1939
4969,13802,1934,1934
4970,13805,1931,1931
4971,13808,1929,1929
4972,13811,1928,1928
4973,13813,1929,1929
4974,13816,1931,1931
4975,13819,1934,1934
4976,13822,1939,1939
4977,13825,1945,1945
4978,13827,2063,2063
4979,13830,2066,2066
4980,13833,2069,2069
4981,13836,2073,2073
4982,13838,2077,2077
4983,13841,2082,2082
4984,13844,2087,2087
4985,13847,2094,2094
4986,13850,2101,2101
4987,13852,2109,2109
4988,13855,2118,2118
4989,13858,2128,2128
4990,13861,2139,2139
4991,13863,2151,2151
4992,13866,2165,2165
4993,13869,2179,2179
4994,13872,2195,2195
4995,13875,2212,2212
4996,13877,2231,2231
4997,13880,2251,2251
4998,13883,2272,2272
4999,13886,2294,2294
5000,13888,2317,2317
5001,13891,2342,2342
5002,13894,2367,2367
5003,13897,2394,2394
5004,13900,2421,2421
5005,13902,2449,2449
5006,13905,2477,2477
5007,13908,2505,2505
5008,13911,2533,2533
5009,13913,2561,2561
5010,13916,2589,2589
5011,13919,2616,2616
5012,13922,2641,2641
5013,13925,2666,2666
5014,13927,2689,2689
5015,13930,2711,2711
5016,13933,2730,2730
5017,13936,2748,2748
5018,13938,2763,2763
5019,13941,2775,2775
5020,13944,2785,2785
5021,13947,2792,2792
5022,13950,2797,2797
5023,13952,2798,2798
5024,13955,2797,2797
5025,13958,2792,2792
5026,13961,2785,2785
5027,13963,2775,2775
5028,13966,2763,2763
5029,13969,2748,2748
5030,13972,2730,2730
5031,13975,2711,2711
5032,13977,2689,2689
5033,13980,2666,2666
5034,13983,2641,2641
5035,13986,2616,2616
5036,13988,2589,2589
5037,13991,2561,2561
5038,13994,2533,2533
5039,13997,2505,2505
5040,14000,2477,2477
5041,14002,2449,2449
5042,14005,2421,2421
5043,14008,2394,2394
5044,14011,2367,2367
5045,14013,2342,2342
5046,14016,2317,2317
5047,14019,2294,2294
5048,14022,2272,2272
5049,14025,2251,2251
5050,14027,2231,2231
5051,14030,2212,2212
5052,14033,2195,2195
5053,14036,2179,2179
5054,14038,2165,2165
5055,14041,2151,2151
5056,14044,2139,2139
5057,14047,2128,2128
5058,14050,2118,2118
5059,14052,2109,2109
5060,14055,2101,2101
5061,14058,2094,2094
5062,14061,2087,2087
5063,14063,2082,2082
5064,14066,2077,2077
5065,14069,2073,2073
5066,14072,2069,2069
5067,14075,2066,2066
5068,14077,2063,2063
5069,14080,2060,2060
5070,14083,2058,2058
5071,14086,2057,2057
5072,14088,2055,2055
5073,14091,2048,2048
5074,14094,2047,2047
5075,14097,2047,2047
5076,14100,2046,2046
5077,14102,2045,2045
5078,14105,2045,2045
5079,14108,2043,2043
5080,14111,2042,2042
5081,14113,2040,2040
5082,14116,2038,2038
5083,14119,2035,2035
5084,14122,2032,2032
5085,14125,2028,2028
5086,14127,2023,2023
5087,14130,2018,2018
5088,14133,2012,2012
5089,14136,2006,2006
5090,14138,1999,1999
5091,14141,1991,1991
5092,14144,1983,1983
5093,14147,1975,1975
5094,14150,1967,1967
5095,14152,1959,1959
5096,14155,1952,1952
5097,14158,1945,1945
5098,14161,1939,1939
5099,14163,1934,1934
5100,14166,1931,1931
5101,14169,1929,1929
5102,14172,1928,1928
5103,14175,1929,1929
5104,14177,1931,1931
5105,14180,1934,1934
5106,14183,1939,1939
5107,14186,1945,1945
5108,14188,2063,2063
5109,14191,2066,2066
5110,14194,2069,2069
5111,14197,2073,2073
5112,14200,2077,2077
5113,14202,2082,2082
5114,14205,2087,2087
5115,14208,2094,2094
5116,14211,2101,2101
5117,14213,2109,2109
5118,14216,2118,2118
5119,14219,2128,2128
5120,14222,2139,2139
5121,14225,2151,2151
5122,14227,2165,2165
5123,14230,2179,2179
5124,14233,2195,2195
5125,14236,2212,2212
5126,14238,2231,2231
5127,14241,2251,2251
5128,14244,2272,2272
5129,14247,2294,2294
5130,14250,2317,2317
5131,14252,2342,2342
5132,14255,2367,2367
5133,14258,2394,2394
5134,14261,2421,2421
5135,14263,2449,2449
5136,14266,2477,2477
5137,14269,2505,2505
5138,14272,2533,2533
5139,14275,2561,2561
5140,14277,2589,2589
5141,14280,2616,2616
5142,14283,2641,2641
5143,14286,2666,2666
5144,14288,2689,2689
5145,14291,2711,2711
5146,14294,2730,2730
5147,14297,2748,2748
5148,14300,2763,2763
5149,14302,2775,2775
5150,14305,2785,2785
5151,14308,2792,2792
5152,14311,2797,2797
5153,14313,2798,2798
5154,14316,2797,2797
5155,14319,2792,2792
5156,14322,2785,2785
5157,14325,2775,2775
5158,14327,2763,2763
5159,14330,2748,2748
5160,14333,2730,2730
5161,14336,2711,2711
5162,14338,2689,2689
5163,14341,2666,2666
5164,14344,2641,2641
5165,14347,2616,2616
5166,14350,2589,2589
5167,14352,2561,2561
5168,14355,2533,2533
5169,14358,2505,2505
5170,14361,2477,2477
5171,14363,2449,2449
5172,14366,2421,2421
5173,14369,2394,2394
5174,14372,2367,2367
5175,14375,2342,2342
5176,14377,2317,2317
5177,14380,2294,2294
5178,14383,2272,2272
5179,14386,2251,2251
5180,14388,2231,2231
5181,14391,2212,2212
5182,14394,2195,2195
5183,14397,2179,2179
5184,14400,2165,2165
5185,14402,2151,2151
5186,14405,2139,2139
5187,14408,2128,2128
5188,14411,2118,2118
5189,14413,2109,2109
5190,14416,2101,2101
5191,14419,2094,2094
5192,14422,2087,2087
5193,14425,2082,2082
5194,14427,2077,2077
5195,14430,2073,2073
5196,14433,2069,2069
5197,14436,2066,2066
5198,14438,2063,2063
5199,14441,2060,2060
5200,14444,2058,2058
5201,14447,2057,2057
5202,14450,2055,2055
5203,14452,2048,2048
5204,14455,2047,2047
5205,14458,2047,2047
5206,14461,2046,2046
5207,14463,2045,2045
5208,14466,2045,2045
5209,14469,2043,2043
5210,14472,2042,2042
5211,14475,2040,2040
5212,14477,2038,2038
5213,14480,2035,2035
5214,14483,2032,2032
5215,14486,2028,2028
5216,14488,2023,2023
5217,14491,2018,2018
5218,14494,2012,2012
5219,14497,2006,2006
5220,14500,1999,1999
5221,14502,1991,1991
5222,14505,1983,1983
5223,14508,1975,1975
5224,14511,1967,1967
5225,14513,1959,1959
5226,14516,1952,1952
5227,14519,1945,1945
5228,14522,1939,1939
5229,14525,1934,1934
5230,14527,1931,1931
5231,14530,1929,1929
5232,14533,1928,1928
5233,14536,1929,1929
5234,14538,1931,1931
5235,14541,1934,1934
5236,14544,1939,1939
5237,14547,1945,1945
5238,14550,2063,2063
5239,14552,2066,2066
5240,14555,2069,2069
5241,14558,2073,2073
5242,14561,2077,2077
5243,14563,2082,2082
5244,14566,2087,2087
5245,14569,2094,2094
5246,14572,2101,2101
5247,14575,2109,2109
5248,14577,2118,2118
5249,14580,2128,2128
5250,14583,2139,2139
5251,14586,2151,2151
5252,14588,2165,2165
5253,14591,2179,2179
5254,14594,2195,2195
5255,14597,2212,2212
5256,14600,2231,2231
5257,14602,2251,2251
5258,14605,2272,2272
5259,14608,2294,2294
5260,14611,2317,2317
5261,14613,2342,2342
5262,14616,2367,2367
5263,14619,2394,2394
5264,14622,2421,2421
5265,14625,2449,2449
5266,14627,2477,2477
5267,14630,2505,2505
5268,14633,2533,2533
5269,14636,2561,2561
5270,14638,2589,2589
5271,14641,2616,2616
5272,14644,2641,2641
5273,14647,2666,2666
5274,14650,2689,2689
5275,14652,2711,2711
5276,14655,2730,2730
5277,14658,2748,2748
5278,14661,2763,2763
5279,14663,2775,2775
5280,14666,2785,2785
5281,14669,2792,2792
5282,14672,2797,2797
5283,14675,2798,2798
5284,14677,2797,2797
5285,14680,2792,2792
5286,14683,2785,2785
5287,14686,2775,2775
5288,14688,2763,2763
5289,14691,2748,2748
5290,14694,2730,2730
5291,14697,2711,2711
5292,14700,2689,2689
5293,14702,2666,2666
5294,14705,2641,2641
5295,14708,2616,2616
5296,14711,2589,2589
5297,14713,2561,2561
5298,14716,2533,2533
5299,14719,2505,2505
5300,14722,2477,2477
5301,14725,2449,2449
5302,14727,2421,2421
5303,14730,2394,2394
5304,14733,2367,2367
5305,14736,2342,2342
5306,14738,2317,2317
5307,14741,2294,2294
5308,14744,2272,2272
5309,14747,2251,2251
5310,14750,2231,2231
5311,14752,2212,2212
5312,14755,2195,2195
5313,14758,2179,2179
5314,14761,2165,2165
5315,14763,2151,2151
5316,14766,2139,2139
5317,14769,2128,2128
5318,14772,2118,2118
5319,14775,2109,2109
5320,14777,2101,2101
5321,14780,2094,2094
5322,14783,2087,2087
5323,14786,2082,2082
5324,14788,2077,2077
5325,14791,2073,2073
5326,14794,2069,2069
5327,14797,2066,2066
5328,14800,2063,2063
5329,14802,2060,2060
5330,14805,2058,2058
5331,14808,2057,2057
5332,14811,2055,2055
5333,14813,2048,2048
5334,14816,2047,2047
5335,14819,2047,2047
5336,14822,2046,2046
5337,14825,2045,2045
5338,14827,2045,2045
5339,14830,2043,2043
5340,14833,2042,2042
5341,14836,2040,2040
5342,14838,2038,2038
5343,14841,2035,2035
5344,14844,2032,2032
5345,14847,2028,2028
5346,14850,2023,2023
5347,14852,2018,2018
5348,14855,2012,2012
5349,14858,2006,2006
5350,14861,1999,1999
5351,14863,1991,1991
5352,14866,1983,1983
5353,14869,1975,1975
5354,14872,1967,1967
5355,14875,1959,1959
5356,14877,1952,1952
5357,14880,1945,1945
5358,14883,1939,1939
5359,14886,1934,1934
5360,14888,1931,1931
5361,14891,1929,1929
5362,14894,1928,1928
5363,14897,1929,1929
5364,14900,1931,1931
5365,14902,1934,1934
5366,14905,1939,1939
5367,14908,1945,1945
5368,14911,2063,2063
5369,14913,2066,2066
5370,14916,2069,2069
5371,14919,2073,2073
5372,14922,2077,2077
5373,14925,2082,2082
5374,14927,2087,2087
5375,14930,2094,2094
5376,14933,2101,2101
5377,14936,2109,2109
5378,14938,2118,2118
5379,14941,2128,2128
5380,14944,2139,2139
5381,14947,2151,2151
5382,14950,2165,2165
5383,14952,2179,2179
5384,14955,2195,2195
5385,14958,2212,2212
5386,14961,2231,2231
5387,14963,2251,2251
5388,14966,2272,2272
5389,14969,2294,2294
5390,14972,2317,2317
5391,14975,2342,2342
5392,14977,2367,2367
5393,14980,2394,2394
5394,14983,2421,2421
5395,14986,2449,2449
5396,14988,2477,2477
5397,14991,2505,2505
5398,14994,2533,2533
5399,14997,2561,2561
