Index,Time_ms,Raw,Filtered
0,0,2050,2050
1,2,2051,2051
2,5,2052,2052
3,8,2054,2054
4,11,2057,2057
5,13,2060,2060
6,16,2064,2064
7,19,2069,2069
8,22,2074,2074
9,25,2080,2080
10,27,2086,2086
11,30,2091,2091
12,33,2096,2096
13,36,2100,2100
14,38,2102,2102
15,41,2103,2103
16,44,2102,2102
17,47,2100,2100
18,50,2096,2096
19,52,2091,2091
20,55,2086,2086
21,58,2080,2080
22,61,2074,2074
23,63,2069,2069
24,66,2064,2064
25,69,2060,2060
26,72,2057,2057
27,75,2054,2054
28,77,2052,2052
29,80,2051,2051
30,83,2050,2050
31,86,2049,2049
32,88,2049,2049
33,91,2048,2048
34,94,2048,2048
35,97,2048,2048
36,100,2048,2048
37,102,2048,2048
38,105,2048,2048
39,108,2048,2048
40,111,2048,2048
41,113,2048,2048
42,116,2048,2048
43,119,2048,2048
44,122,2048,2048
45,125,2048,2048
46,127,2048,2048
47,130,2048,2048
48,133,2048,2048
49,136,2048,2048
50,138,2048,2048
51,141,2051,2051
52,144,2052,2052
53,147,2055,2055
54,150,2058,2058
55,152,2063,2063
56,155,2069,2069
57,158,2078,2078
58,161,2089,2089
59,163,2103,2103
60,166,2120,2120
61,169,2141,2141
62,172,2165,2165
63,175,2192,2192
64,177,2221,2221
65,180,2252,2252
66,183,2284,2284
67,186,2314,2314
68,188,2342,2342
69,191,2365,2365
70,194,2383,2383
71,197,2394,2394
72,200,2398,2398
73,202,2394,2394
74,205,2383,2383
75,208,2365,2365
76,211,2342,2342
77,213,2314,2314
78,216,2284,2284
79,219,2252,2252
80,222,2221,2221
81,225,2192,2192
82,227,2165,2165
83,230,2141,2141
84,233,2120,2120
85,236,2103,2103
86,238,2089,2089
87,241,2078,2078
88,244,2069,2069
89,247,2063,2063
90,250,2058,2058
91,252,2055,2055
92,255,2052,2052
93,258,2048,2048
94,261,2048,2048
95,263,2048,2048
96,266,2048,2048
97,269,2048,2048
98,272,2048,2048
99,275,2048,2048
100,277,2048,2048
101,280,2048,2048
102,283,2048,2048
103,286,2048,2048
104,288,2048,2048
105,291,2048,2048
106,294,2048,2048
107,297,2048,2048
108,300,2048,2048
109,302,2048,2048
110,305,2048,2048
111,308,2048,2048
112,311,2048,2048
113,313,2048,2048
114,316,2048,2048
115,319,2048,2048
116,322,2048,2048
117,325,2048,2048
118,327,2048,2048
119,330,2048,2048
120,333,2048,2048
121,336,2048,2048
122,338,2048,2048
123,341,2049,2049
124,344,2049,2049
125,347,2049,2049
126,350,2050,2050
127,352,2051,2051
128,355,2051,2051
129,358,2053,2053
130,361,2054,2054
131,363,2056,2056
132,366,2058,2058
133,369,2060,2060
134,372,2063,2063
135,375,2067,2067
136,377,2070,2070
137,380,2075,2075
138,383,2080,2080
139,386,2085,2085
140,388,2091,2091
141,391,2097,2097
142,394,2103,2103
143,397,2109,2109
144,400,2115,2115
145,402,2120,2120
146,405,2125,2125
147,408,2130,2130
148,411,2133,2133
149,413,2136,2136
150,416,2137,2137
151,419,2138,2138
152,422,2137,2137
153,425,2136,2136
154,427,2133,2133
155,430,2130,2130
156,433,2125,2125
157,436,2120,2120
158,438,2115,2115
159,441,2109,2109
160,444,2103,2103
161,447,2097,2097
162,450,2091,2091
163,452,2085,2085
164,455,2080,2080
165,458,2075,2075
166,461,2070,2070
167,463,2067,2067
168,466,2063,2063
169,469,2060,2060
170,472,2058,2058
171,475,2056,2056
172,477,2054,2054
173,480,2053,2053
174,483,2051,2051
175,486,2051,2051
176,488,2050,2050
177,491,2049,2049
178,494,2049,2049
179,497,2048,2048
180,500,2048,2048
181,502,2048,2048
182,505,2048,2048
183,508,2048,2048
184,511,2048,2048
185,513,2048,2048
186,516,2048,2048
187,519,2048,2048
188,522,2048,2048
189,525,2048,2048
190,527,2048,2048
191,530,2048,2048
192,533,2048,2048
193,536,2048,2048
194,538,2048,2048
195,541,2048,2048
196,544,2048,2048
197,547,2048,2048
198,550,2048,2048
199,552,2048,2048
200,555,2048,2048
201,558,2048,2048
202,561,2048,2048
203,563,2048,2048
204,566,2048,2048
205,569,2048,2048
206,572,2048,2048
207,575,2048,2048
208,577,2048,2048
209,580,2048,2048
210,583,2048,2048
211,586,2048,2048
212,588,2048,2048
213,591,2048,2048
214,594,2048,2048
215,597,2048,2048
216,600,2048,2048
217,602,2048,2048
218,605,2048,2048
219,608,2048,2048
220,611,2048,2048
221,613,2048,2048
222,616,2048,2048
223,619,2048,2048
224,622,2048,2048
225,625,2048,2048
226,627,2048,2048
227,630,2048,2048
228,633,2048,2048
229,636,2048,2048
230,638,2048,2048
231,641,2048,2048
232,644,2048,2048
233,647,2048,2048
234,650,2048,2048
235,652,2048,2048
236,655,2048,2048
237,658,2048,2048
238,661,2048,2048
239,663,2048,2048
240,666,2048,2048
241,669,2048,2048
242,672,2048,2048
243,675,2048,2048
244,677,2048,2048
245,680,2048,2048
246,683,2048,2048
247,686,2048,2048
248,688,2048,2048
249,691,2048,2048
250,694,2048,2048
251,697,2048,2048
252,700,2048,2048
253,702,2048,2048
254,705,2048,2048
255,708,2048,2048
256,711,2048,2048
257,713,2048,2048
258,716,2048,2048
259,719,2048,2048
260,722,2048,2048
261,725,2048,2048
262,727,2048,2048
263,730,2048,2048
264,733,2048,2048
265,736,2048,2048
266,738,2048,2048
267,741,2048,2048
268,744,2048,2048
269,747,2048,2048
270,750,2048,2048
271,752,2048,2048
272,755,2048,2048
273,758,2048,2048
274,761,2048,2048
275,763,2048,2048
276,766,2048,2048
277,769,2048,2048
278,772,2048,2048
279,775,2048,2048
280,777,2048,2048
281,780,2048,2048
282,783,2048,2048
283,786,2048,2048
284,788,2048,2048
285,791,2048,2048
286,794,2048,2048
287,797,2048,2048
288,800,2050,2050
289,802,2051,2051
290,805,2052,2052
291,808,2054,2054
292,811,2057,2057
293,813,2060,2060
294,816,2064,2064
295,819,2069,2069
296,822,2074,2074
297,825,2080,2080
298,827,2086,2086
299,830,2091,2091
300,833,2096,2096
301,836,2100,2100
302,838,2102,2102
303,841,2103,2103
304,844,2102,2102
305,847,2100,2100
306,850,2096,2096
307,852,2091,2091
308,855,2086,2086
309,858,2080,2080
310,861,2074,2074
311,863,2069,2069
312,866,2064,2064
313,869,2060,2060
314,872,2057,2057
315,875,2054,2054
316,877,2052,2052
317,880,2051,2051
318,883,2050,2050
319,886,2049,2049
320,888,2049,2049
321,891,2048,2048
322,894,2048,2048
323,897,2048,2048
324,900,2048,2048
325,902,2048,2048
326,905,2048,2048
327,908,2048,2048
328,911,2048,2048
329,913,2048,2048
330,916,2048,2048
331,919,2048,2048
332,922,2048,2048
333,925,2048,2048
334,927,2048,2048
335,930,2048,2048
336,933,2048,2048
337,936,2048,2048
338,938,2048,2048
339,941,2051,2051
340,944,2052,2052
341,947,2055,2055
342,950,2058,2058
343,952,2063,2063
344,955,2069,2069
345,958,2078,2078
346,961,2089,2089
347,963,2103,2103
348,966,2120,2120
349,969,2141,2141
350,972,2165,2165
351,975,2192,2192
352,977,2221,2221
353,980,2252,2252
354,983,2284,2284
355,986,2314,2314
356,988,2342,2342
357,991,2365,2365
358,994,2383,2383
359,997,2394,2394
360,1000,2398,2398
361,1002,2394,2394
362,1005,2383,2383
363,1008,2365,2365
364,1011,2342,2342
365,1013,2314,2314
366,1016,2284,2284
367,1019,2252,2252
368,1022,2221,2221
369,1025,2192,2192
370,1027,2165,2165
371,1030,2141,2141
372,1033,2120,2120
373,1036,2103,2103
374,1038,2089,2089
375,1041,2078,2078
376,1044,2069,2069
377,1047,2063,2063
378,1050,2058,2058
379,1052,2055,2055
380,1055,2052,2052
381,1058,2048,2048
382,1061,2048,2048
383,1063,2048,2048
384,1066,2048,2048
385,1069,2048,2048
386,1072,2048,2048
387,1075,2048,2048
388,1077,2048,2048
389,1080,2048,2048
390,1083,2048,2048
391,1086,2048,2048
392,1088,2048,2048
393,1091,2048,2048
394,1094,2048,2048
395,1097,2048,2048
396,1100,2048,2048
397,1102,2048,2048
398,1105,2048,2048
399,1108,2048,2048
400,1111,2048,2048
401,1113,2048,2048
402,1116,2048,2048
403,1119,2048,2048
404,1122,2048,2048
405,1125,2048,2048
406,1127,2048,2048
407,1130,2048,2048
408,1133,2048,2048
409,1136,2048,2048
410,1138,2048,2048
411,1141,2049,2049
412,1144,2049,2049
413,1147,2049,2049
414,1150,2050,2050
415,1152,2051,2051
416,1155,2051,2051
417,1158,2053,2053
418,1161,2054,2054
419,1163,2056,2056
420,1166,2058,2058
421,1169,2060,2060
422,1172,2063,2063
423,1175,2067,2067
424,1177,2070,2070
425,1180,2075,2075
426,1183,2080,2080
427,1186,2085,2085
428,1188,2091,2091
429,1191,2097,2097
430,1194,2103,2103
431,1197,2109,2109
432,1200,2115,2115
433,1202,2120,2120
434,1205,2125,2125
435,1208,2130,2130
436,1211,2133,2133
437,1213,2136,2136
438,1216,2137,2137
439,1219,2138,2138
440,1222,2137,2137
441,1225,2136,2136
442,1227,2133,2133
443,1230,2130,2130
444,1233,2125,2125
445,1236,2120,2120
446,1238,2115,2115
447,1241,2109,2109
448,1244,2103,2103
449,1247,2097,2097
450,1250,2091,2091
451,1252,2085,2085
452,1255,2080,2080
453,1258,2075,2075
454,1261,2070,2070
455,1263,2067,2067
456,1266,2063,2063
457,1269,2060,2060
458,1272,2058,2058
459,1275,2056,2056
460,1277,2054,2054
461,1280,2053,2053
462,1283,2051,2051
463,1286,2051,2051
464,1288,2050,2050
465,1291,2049,2049
466,1294,2049,2049
467,1297,2048,2048
468,1300,2048,2048
469,1302,2048,2048
470,1305,2048,2048
471,1308,2048,2048
472,1311,2048,2048
473,1313,2048,2048
474,1316,2048,2048
475,1319,2048,2048
476,1322,2048,2048
477,1325,2048,2048
478,1327,2048,2048
479,1330,2048,2048
480,1333,2048,2048
481,1336,2048,2048
482,1338,2048,2048
483,1341,2048,2048
484,1344,2048,2048
485,1347,2048,2048
486,1350,2048,2048
487,1352,2048,2048
488,1355,2048,2048
489,1358,2048,2048
490,1361,2048,2048
491,1363,2048,2048
492,1366,2048,2048
493,1369,2048,2048
494,1372,2048,2048
495,1375,2048,2048
496,1377,2048,2048
497,1380,2048,2048
498,1383,2048,2048
499,1386,2048,2048
500,1388,2048,2048
501,1391,2048,2048
502,1394,2048,2048
503,1397,2048,2048
504,1400,2048,2048
505,1402,2048,2048
506,1405,2048,2048
507,1408,2048,2048
508,1411,2048,2048
509,1413,2048,2048
510,1416,2048,2048
511,1419,2048,2048
512,1422,2048,2048
513,1425,2048,2048
514,1427,2048,2048
515,1430,2048,2048
516,1433,2048,2048
517,1436,2048,2048
518,1438,2048,2048
519,1441,2048,2048
520,1444,2048,2048
521,1447,2048,2048
522,1450,2048,2048
523,1452,2048,2048
524,1455,2048,2048
525,1458,2048,2048
526,1461,2048,2048
527,1463,2048,2048
528,1466,2048,2048
529,1469,2048,2048
530,1472,2048,2048
531,1475,2048,2048
532,1477,2048,2048
533,1480,2048,2048
534,1483,2048,2048
535,1486,2048,2048
536,1488,2048,2048
537,1491,2048,2048
538,1494,2048,2048
539,1497,2048,2048
540,1500,2048,2048
541,1502,2048,2048
542,1505,2048,2048
543,1508,2048,2048
544,1511,2048,2048
545,1513,2048,2048
546,1516,2048,2048
547,1519,2048,2048
548,1522,2048,2048
549,1525,2048,2048
550,1527,2048,2048
551,1530,2048,2048
552,1533,2048,2048
553,1536,2048,2048
554,1538,2048,2048
555,1541,2048,2048
556,1544,2048,2048
557,1547,2048,2048
558,1550,2048,2048
559,1552,2048,2048
560,1555,2048,2048
561,1558,2048,2048
562,1561,2048,2048
563,1563,2048,2048
564,1566,2048,2048
565,1569,2048,2048
566,1572,2048,2048
567,1575,2048,2048
568,1577,2048,2048
569,1580,2048,2048
570,1583,2048,2048
571,1586,2048,2048
572,1588,2048,2048
573,1591,2048,2048
574,1594,2048,2048
575,1597,2048,2048
576,1600,2050,2050
577,1602,2051,2051
578,1605,2052,2052
579,1608,2054,2054
580,1611,2057,2057
581,1613,2060,2060
582,1616,2064,2064
583,1619,2069,2069
584,1622,2074,2074
585,1625,2080,2080
586,1627,2086,2086
587,1630,2091,2091
588,1633,2096,2096
589,1636,2100,2100
590,1638,2102,2102
591,1641,2103,2103
592,1644,2102,2102
593,1647,2100,2100
594,1650,2096,2096
595,1652,2091,2091
596,1655,2086,2086
597,1658,2080,2080
598,1661,2074,2074
599,1663,2069,2069
600,1666,2064,2064
601,1669,2060,2060
602,1672,2057,2057
603,1675,2054,2054
604,1677,2052,2052
605,1680,2051,2051
606,1683,2050,2050
607,1686,2049,2049
608,1688,2049,2049
609,1691,2048,2048
610,1694,2048,2048
611,1697,2048,2048
612,1700,2048,2048
613,1702,2048,2048
614,1705,2048,2048
615,1708,2048,2048
616,1711,2048,2048
617,1713,2048,2048
618,1716,2048,2048
619,1719,2048,2048
620,1722,2048,2048
621,1725,2048,2048
622,1727,2048,2048
623,1730,2048,2048
624,1733,2048,2048
625,1736,2048,2048
626,1738,2048,2048
627,1741,2051,2051
628,1744,2052,2052
629,1747,2055,2055
630,1750,2058,2058
631,1752,2063,2063
632,1755,2069,2069
633,1758,2078,2078
634,1761,2089,2089
635,1763,2103,2103
636,1766,2120,2120
637,1769,2141,2141
638,1772,2165,2165
639,1775,2192,2192
640,1777,2221,2221
641,1780,2252,2252
642,1783,2284,2284
643,1786,2314,2314
644,1788,2342,2342
645,1791,2365,2365
646,1794,2383,2383
647,1797,2394,2394
648,1800,2398,2398
649,1802,2394,2394
650,1805,2383,2383
651,1808,2365,2365
652,1811,2342,2342
653,1813,2314,2314
654,1816,2284,2284
655,1819,2252,2252
656,1822,2221,2221
657,1825,2192,2192
658,1827,2165,2165
659,1830,2141,2141
660,1833,2120,2120
661,1836,2103,2103
662,1838,2089,2089
663,1841,2078,2078
664,1844,2069,2069
665,1847,2063,2063
666,1850,2058,2058
667,1852,2055,2055
668,1855,2052,2052
669,1858,2048,2048
670,1861,2048,2048
671,1863,2048,2048
672,1866,2048,2048
673,1869,2048,2048
674,1872,2048,2048
675,1875,2048,2048
676,1877,2048,2048
677,1880,2048,2048
678,1883,2048,2048
679,1886,2048,2048
680,1888,2048,2048
681,1891,2048,2048
682,1894,2048,2048
683,1897,2048,2048
684,1900,2048,2048
685,1902,2048,2048
686,1905,2048,2048
687,1908,2048,2048
688,1911,2048,2048
689,1913,2048,2048
690,1916,2048,2048
691,1919,2048,2048
692,1922,2048,2048
693,1925,2048,2048
694,1927,2048,2048
695,1930,2048,2048
696,1933,2048,2048
697,1936,2048,2048
698,1938,2048,2048
699,1941,2049,2049
700,1944,2049,2049
701,1947,2049,2049
702,1950,2050,2050
703,1952,2051,2051
704,1955,2051,2051
705,1958,2053,2053
706,1961,2054,2054
707,1963,2056,2056
708,1966,2058,2058
709,1969,2060,2060
710,1972,2063,2063
711,1975,2067,2067
712,1977,2070,2070
713,1980,2075,2075
714,1983,2080,2080
715,1986,2085,2085
716,1988,2091,2091
717,1991,2097,2097
718,1994,2103,2103
719,1997,2109,2109
720,2000,2115,2115
721,2002,2120,2120
722,2005,2125,2125
723,2008,2130,2130
724,2011,2133,2133
725,2013,2136,2136
726,2016,2137,2137
727,2019,2138,2138
728,2022,2137,2137
729,2025,2136,2136
730,2027,2133,2133
731,2030,2130,2130
732,2033,2125,2125
733,2036,2120,2120
734,2038,2115,2115
735,2041,2109,2109
736,2044,2103,2103
737,2047,2097,2097
738,2050,2091,2091
739,2052,2085,2085
740,2055,2080,2080
741,2058,2075,2075
742,2061,2070,2070
743,2063,2067,2067
744,2066,2063,2063
745,2069,2060,2060
746,2072,2058,2058
747,2075,2056,2056
748,2077,2054,2054
749,2080,2053,2053
750,2083,2051,2051
751,2086,2051,2051
752,2088,2050,2050
753,2091,2049,2049
754,2094,2049,2049
755,2097,2048,2048
756,2100,2048,2048
757,2102,2048,2048
758,2105,2048,2048
759,2108,2048,2048
760,2111,2048,2048
761,2113,2048,2048
762,2116,2048,2048
763,2119,2048,2048
764,2122,2048,2048
765,2125,2048,2048
766,2127,2048,2048
767,2130,2048,2048
768,2133,2048,2048
769,2136,2048,2048
770,2138,2048,2048
771,2141,2048,2048
772,2144,2048,2048
773,2147,2048,2048
774,2150,2048,2048
775,2152,2048,2048
776,2155,2048,2048
777,2158,2048,2048
778,2161,2048,2048
779,2163,2048,2048
780,2166,2048,2048
781,2169,2048,2048
782,2172,2048,2048
783,2175,2048,2048
784,2177,2048,2048
785,2180,2048,2048
786,2183,2048,2048
787,2186,2048,2048
788,2188,2048,2048
789,2191,2048,2048
790,2194,2048,2048
791,2197,2048,2048
792,2200,2048,2048
793,2202,2048,2048
794,2205,2048,2048
795,2208,2048,2048
796,2211,2048,2048
797,2213,2048,2048
798,2216,2048,2048
799,2219,2048,2048
800,2222,2048,2048
801,2225,2048,2048
802,2227,2048,2048
803,2230,2048,2048
804,2233,2048,2048
805,2236,2048,2048
806,2238,2048,2048
807,2241,2048,2048
808,2244,2048,2048
809,2247,2048,2048
810,2250,2048,2048
811,2252,2048,2048
812,2255,2048,2048
813,2258,2048,2048
814,2261,2048,2048
815,2263,2048,2048
816,2266,2048,2048
817,2269,2048,2048
818,2272,2048,2048
819,2275,2048,2048
820,2277,2048,2048
821,2280,2048,2048
822,2283,2048,2048
823,2286,2048,2048
824,2288,2048,2048
825,2291,2048,2048
826,2294,2048,2048
827,2297,2048,2048
828,2300,2048,2048
829,2302,2048,2048
830,2305,2048,2048
831,2308,2048,2048
832,2311,2048,2048
833,2313,2048,2048
834,2316,2048,2048
835,2319,2048,2048
836,2322,2048,2048
837,2325,2048,2048
838,2327,2048,2048
839,2330,2048,2048
840,2333,2048,2048
841,2336,2048,2048
842,2338,2048,2048
843,2341,2048,2048
844,2344,2048,2048
845,2347,2048,2048
846,2350,2048,2048
847,2352,2048,2048
848,2355,2048,2048
849,2358,2048,2048
850,2361,2048,2048
851,2363,2048,2048
852,2366,2048,2048
853,2369,2048,2048
854,2372,2048,2048
855,2375,2048,2048
856,2377,2048,2048
857,2380,2048,2048
858,2383,2048,2048
859,2386,2048,2048
860,2388,2048,2048
861,2391,2048,2048
862,2394,2048,2048
863,2397,2048,2048
864,2400,2050,2050
865,2402,2051,2051
866,2405,2052,2052
867,2408,2054,2054
868,2411,2057,2057
869,2413,2060,2060
870,2416,2064,2064
871,2419,2069,2069
872,2422,2074,2074
873,2425,2080,2080
874,2427,2086,2086
875,2430,2091,2091
876,2433,2096,2096
877,2436,2100,2100
878,2438,2102,2102
879,2441,2103,2103
880,2444,2102,2102
881,2447,2100,2100
882,2450,2096,2096
883,2452,2091,2091
884,2455,2086,2086
885,2458,2080,2080
886,2461,2074,2074
887,2463,2069,2069
888,2466,2064,2064
889,2469,2060,2060
890,2472,2057,2057
891,2475,2054,2054
892,2477,2052,2052
893,2480,2051,2051
894,2483,2050,2050
895,2486,2049,2049
896,2488,2049,2049
897,2491,2048,2048
898,2494,2048,2048
899,2497,2048,2048
900,2500,2048,2048
901,2502,2048,2048
902,2505,2048,2048
903,2508,2048,2048
904,2511,2048,2048
905,2513,2048,2048
906,2516,2048,2048
907,2519,2048,2048
908,2522,2048,2048
909,2525,2048,2048
910,2527,2048,2048
911,2530,2048,2048
912,2533,2048,2048
913,2536,2048,2048
914,2538,2048,2048
915,2541,2051,2051
916,2544,2052,2052
917,2547,2055,2055
918,2550,2058,2058
919,2552,2063,2063
920,2555,2069,2069
921,2558,2078,2078
922,2561,2089,2089
923,2563,2103,2103
924,2566,2120,2120
925,2569,2141,2141
926,2572,2165,2165
927,2575,2192,2192
928,2577,2221,2221
929,2580,2252,2252
930,2583,2284,2284
931,2586,2314,2314
932,2588,2342,2342
933,2591,2365,2365
934,2594,2383,2383
935,2597,2394,2394
936,2600,2398,2398
937,2602,2394,2394
938,2605,2383,2383
939,2608,2365,2365
940,2611,2342,2342
941,2613,2314,2314
942,2616,2284,2284
943,2619,2252,2252
944,2622,2221,2221
945,2625,2192,2192
946,2627,2165,2165
947,2630,2141,2141
948,2633,2120,2120
949,2636,2103,2103
950,2638,2089,2089
951,2641,2078,2078
952,2644,2069,2069
953,2647,2063,2063
954,2650,2058,2058
955,2652,2055,2055
956,2655,2052,2052
957,2658,2048,2048
958,2661,2048,2048
959,2663,2048,2048
960,2666,2048,2048
961,2669,2048,2048
962,2672,2048,2048
963,2675,2048,2048
964,2677,2048,2048
965,2680,2048,2048
966,2683,2048,2048
967,2686,2048,2048
968,2688,2048,2048
969,2691,2048,2048
970,2694,2048,2048
971,2697,2048,2048
972,2700,2048,2048
973,2702,2048,2048
974,2705,2048,2048
975,2708,2048,2048
976,2711,2048,2048
977,2713,2048,2048
978,2716,2048,2048
979,2719,2048,2048
980,2722,2048,2048
981,2725,2048,2048
982,2727,2048,2048
983,2730,2048,2048
984,2733,2048,2048
985,2736,2048,2048
986,2738,2048,2048
987,2741,2049,2049
988,2744,2049,2049
989,2747,2049,2049
990,2750,2050,2050
991,2752,2051,2051
992,2755,2051,2051
993,2758,2053,2053
994,2761,2054,2054
995,2763,2056,2056
996,2766,2058,2058
997,2769,2060,2060
998,2772,2063,2063
999,2775,2067,2067
1000,2777,2070,2070
1001,2780,2075,2075
1002,2783,2080,2080
1003,2786,2085,2085
1004,2788,2091,2091
1005,2791,2097,2097
1006,2794,2103,2103
1007,2797,2109,2109
1008,2800,2115,2115
1009,2802,2120,2120
1010,2805,2125,2125
1011,2808,2130,2130
1012,2811,2133,2133
1013,2813,2136,2136
1014,2816,2137,2137
1015,2819,2138,2138
1016,2822,2137,2137
1017,2825,2136,2136
1018,2827,2133,2133
1019,2830,2130,2130
1020,2833,2125,2125
1021,2836,2120,2120
1022,2838,2115,2115
1023,2841,2109,2109
1024,2844,2103,2103
1025,2847,2097,2097
1026,2850,2091,2091
1027,2852,2085,2085
1028,2855,2080,2080
1029,2858,2075,2075
1030,2861,2070,2070
1031,2863,2067,2067
1032,2866,2063,2063
1033,2869,2060,2060
1034,2872,2058,2058
1035,2875,2056,2056
1036,2877,2054,2054
1037,2880,2053,2053
1038,2883,2051,2051
1039,2886,2051,2051
1040,2888,2050,2050
1041,2891,2049,2049
1042,2894,2049,2049
1043,2897,2048,2048
1044,2900,2048,2048
1045,2902,2048,2048
1046,2905,2048,2048
1047,2908,2048,2048
1048,2911,2048,2048
1049,2913,2048,2048
1050,2916,2048,2048
1051,2919,2048,2048
1052,2922,2048,2048
1053,2925,2048,2048
1054,2927,2048,2048
1055,2930,2048,2048
1056,2933,2048,2048
1057,2936,2048,2048
1058,2938,2048,2048
1059,2941,2048,2048
1060,2944,2048,2048
1061,2947,2048,2048
1062,2950,2048,2048
1063,2952,2048,2048
1064,2955,2048,2048
1065,2958,2048,2048
1066,2961,2048,2048
1067,2963,2048,2048
1068,2966,2048,2048
1069,2969,2048,2048
1070,2972,2048,2048
1071,2975,2048,2048
1072,2977,2048,2048
1073,2980,2048,2048
1074,2983,2048,2048
1075,2986,2048,2048
1076,2988,2048,2048
1077,2991,2048,2048
1078,2994,2048,2048
1079,2997,2048,2048
1080,3000,2048,2048
1081,3002,2048,2048
1082,3005,2048,2048
1083,3008,2048,2048
1084,3011,2048,2048
1085,3013,2048,2048
1086,3016,2048,2048
1087,3019,2048,2048
1088,3022,2048,2048
1089,3025,2048,2048
1090,3027,2048,2048
1091,3030,2048,2048
1092,3033,2048,2048
1093,3036,2048,2048
1094,3038,2048,2048
1095,3041,2048,2048
1096,3044,2048,2048
1097,3047,2048,2048
1098,3050,2048,2048
1099,3052,2048,2048
1100,3055,2048,2048
1101,3058,2048,2048
1102,3061,2048,2048
1103,3063,2048,2048
1104,3066,2048,2048
1105,3069,2048,2048
1106,3072,2048,2048
1107,3075,2048,2048
1108,3077,2048,2048
1109,3080,2048,2048
1110,3083,2048,2048
1111,3086,2048,2048
1112,3088,2048,2048
1113,3091,2048,2048
1114,3094,2048,2048
1115,3097,2048,2048
1116,3100,2048,2048
1117,3102,2048,2048
1118,3105,2048,2048
1119,3108,2048,2048
1120,3111,2048,2048
1121,3113,2048,2048
1122,3116,2048,2048
1123,3119,2048,2048
1124,3122,2048,2048
1125,3125,2048,2048
1126,3127,2048,2048
1127,3130,2048,2048
1128,3133,2048,2048
1129,3136,2048,2048
1130,3138,2048,2048
1131,3141,2048,2048
1132,3144,2048,2048
1133,3147,2048,2048
1134,3150,2048,2048
1135,3152,2048,2048
1136,3155,2048,2048
1137,3158,2048,2048
1138,3161,2048,2048
1139,3163,2048,2048
1140,3166,2048,2048
1141,3169,2048,2048
1142,3172,2048,2048
1143,3175,2048,2048
1144,3177,2048,2048
1145,3180,2048,2048
1146,3183,2048,2048
1147,3186,2048,2048
1148,3188,2048,2048
1149,3191,2048,2048
1150,3194,2048,2048
1151,3197,2048,2048
1152,3200,2050,2050
1153,3202,2051,2051
1154,3205,2052,2052
1155,3208,2054,2054
1156,3211,2057,2057
1157,3213,2060,2060
1158,3216,2064,2064
1159,3219,2069,2069
1160,3222,2074,2074
1161,3225,2080,2080
1162,3227,2086,2086
1163,3230,2091,2091
1164,3233,2096,2096
1165,3236,2100,2100
1166,3238,2102,2102
1167,3241,2103,2103
1168,3244,2102,2102
1169,3247,2100,2100
1170,3250,2096,2096
1171,3252,2091,2091
1172,3255,2086,2086
1173,3258,2080,2080
1174,3261,2074,2074
1175,3263,2069,2069
1176,3266,2064,2064
1177,3269,2060,2060
1178,3272,2057,2057
1179,3275,2054,2054
1180,3277,2052,2052
1181,3280,2051,2051
1182,3283,2050,2050
1183,3286,2049,2049
1184,3288,2049,2049
1185,3291,2048,2048
1186,3294,2048,2048
1187,3297,2048,2048
1188,3300,2048,2048
1189,3302,2048,2048
1190,3305,2048,2048
1191,3308,2048,2048
1192,3311,2048,2048
1193,3313,2048,2048
1194,3316,2048,2048
1195,3319,2048,2048
1196,3322,2048,2048
1197,3325,2048,2048
1198,3327,2048,2048
1199,3330,2048,2048
1200,3333,2048,2048
1201,3336,2048,2048
1202,3338,2048,2048
1203,3341,2051,2051
1204,3344,2052,2052
1205,3347,2055,2055
1206,3350,2058,2058
1207,3352,2063,2063
1208,3355,2069,2069
1209,3358,2078,2078
1210,3361,2089,2089
1211,3363,2103,2103
1212,3366,2120,2120
1213,3369,2141,2141
1214,3372,2165,2165
1215,3375,2192,2192
1216,3377,2221,2221
1217,3380,2252,2252
1218,3383,2284,2284
1219,3386,2314,2314
1220,3388,2342,2342
1221,3391,2365,2365
1222,3394,2383,2383
1223,3397,2394,2394
1224,3400,2398,2398
1225,3402,2394,2394
1226,3405,2383,2383
1227,3408,2365,2365
1228,3411,2342,2342
1229,3413,2314,2314
1230,3416,2284,2284
1231,3419,2252,2252
1232,3422,2221,2221
1233,3425,2192,2192
1234,3427,2165,2165
1235,3430,2141,2141
1236,3433,2120,2120
1237,3436,2103,2103
1238,3438,2089,2089
1239,3441,2078,2078
1240,3444,2069,2069
1241,3447,2063,2063
1242,3450,2058,2058
1243,3452,2055,2055
1244,3455,2052,2052
1245,3458,2048,2048
1246,3461,2048,2048
1247,3463,2048,2048
1248,3466,2048,2048
1249,3469,2048,2048
1250,3472,2048,2048
1251,3475,2048,2048
1252,3477,2048,2048
1253,3480,2048,2048
1254,3483,2048,2048
1255,3486,2048,2048
1256,3488,2048,2048
1257,3491,2048,2048
1258,3494,2048,2048
1259,3497,2048,2048
1260,3500,2048,2048
1261,3502,2048,2048
1262,3505,2048,2048
1263,3508,2048,2048
1264,3511,2048,2048
1265,3513,2048,2048
1266,3516,2048,2048
1267,3519,2048,2048
1268,3522,2048,2048
1269,3525,2048,2048
1270,3527,2048,2048
1271,3530,2048,2048
1272,3533,2048,2048
1273,3536,2048,2048
1274,3538,2048,2048
1275,3541,2049,2049
1276,3544,2049,2049
1277,3547,2049,2049
1278,3550,2050,2050
1279,3552,2051,2051
1280,3555,2051,2051
1281,3558,2053,2053
1282,3561,2054,2054
1283,3563,2056,2056
1284,3566,2058,2058
1285,3569,2060,2060
1286,3572,2063,2063
1287,3575,2067,2067
1288,3577,2070,2070
1289,3580,2075,2075
1290,3583,2080,2080
1291,3586,2085,2085
1292,3588,2091,2091
1293,3591,2097,2097
1294,3594,2103,2103
1295,3597,2109,2109
1296,3600,2115,2115
1297,3602,2120,2120
1298,3605,2125,2125
1299,3608,2130,2130
1300,3611,2133,2133
1301,3613,2136,2136
1302,3616,2137,2137
1303,3619,2138,2138
1304,3622,2137,2137
1305,3625,2136,2136
1306,3627,2133,2133
1307,3630,2130,2130
1308,3633,2125,2125
1309,3636,2120,2120
1310,3638,2115,2115
1311,3641,2109,2109
1312,3644,2103,2103
1313,3647,2097,2097
1314,3650,2091,2091
1315,3652,2085,2085
1316,3655,2080,2080
1317,3658,2075,2075
1318,3661,2070,2070
1319,3663,2067,2067
1320,3666,2063,2063
1321,3669,2060,2060
1322,3672,2058,2058
1323,3675,2056,2056
1324,3677,2054,2054
1325,3680,2053,2053
1326,3683,2051,2051
1327,3686,2051,2051
1328,3688,2050,2050
1329,3691,2049,2049
1330,3694,2049,2049
1331,3697,2048,2048
1332,3700,2048,2048
1333,3702,2048,2048
1334,3705,2048,2048
1335,3708,2048,2048
1336,3711,2048,2048
1337,3713,2048,2048
1338,3716,2048,2048
1339,3719,2048,2048
1340,3722,2048,2048
1341,3725,2048,2048
1342,3727,2048,2048
1343,3730,2048,2048
1344,3733,2048,2048
1345,3736,2048,2048
1346,3738,2048,2048
1347,3741,2048,2048
1348,3744,2048,2048
1349,3747,2048,2048
1350,3750,2048,2048
1351,3752,2048,2048
1352,3755,2048,2048
1353,3758,2048,2048
1354,3761,2048,2048
1355,3763,2048,2048
1356,3766,2048,2048
1357,3769,2048,2048
1358,3772,2048,2048
1359,3775,2048,2048
1360,3777,2048,2048
1361,3780,2048,2048
1362,3783,2048,2048
1363,3786,2048,2048
1364,3788,2048,2048
1365,3791,2048,2048
1366,3794,2048,2048
1367,3797,2048,2048
1368,3800,2048,2048
1369,3802,2048,2048
1370,3805,2048,2048
1371,3808,2048,2048
1372,3811,2048,2048
1373,3813,2048,2048
1374,3816,2048,2048
1375,3819,2048,2048
1376,3822,2048,2048
1377,3825,2048,2048
1378,3827,2048,2048
1379,3830,2048,2048
1380,3833,2048,2048
1381,3836,2048,2048
1382,3838,2048,2048
1383,3841,2048,2048
1384,3844,2048,2048
1385,3847,2048,2048
1386,3850,2048,2048
1387,3852,2048,2048
1388,3855,2048,2048
1389,3858,2048,2048
1390,3861,2048,2048
1391,3863,2048,2048
1392,3866,2048,2048
1393,3869,2048,2048
1394,3872,2048,2048
1395,3875,2048,2048
1396,3877,2048,2048
1397,3880,2048,2048
1398,3883,2048,2048
1399,3886,2048,2048
1400,3888,2048,2048
1401,3891,2048,2048
1402,3894,2048,2048
1403,3897,2048,2048
1404,3900,2048,2048
1405,3902,2048,2048
1406,3905,2048,2048
1407,3908,2048,2048
1408,3911,2048,2048
1409,3913,2048,2048
1410,3916,2048,2048
1411,3919,2048,2048
1412,3922,2048,2048
1413,3925,2048,2048
1414,3927,2048,2048
1415,3930,2048,2048
1416,3933,2048,2048
1417,3936,2048,2048
1418,3938,2048,2048
1419,3941,2048,2048
1420,3944,2048,2048
1421,3947,2048,2048
1422,3950,2048,2048
1423,3952,2048,2048
1424,3955,2048,2048
1425,3958,2048,2048
1426,3961,2048,2048
1427,3963,2048,2048
1428,3966,2048,2048
1429,3969,2048,2048
1430,3972,2048,2048
1431,3975,2048,2048
1432,3977,2048,2048
1433,3980,2048,2048
1434,3983,2048,2048
1435,3986,2048,2048
1436,3988,2048,2048
1437,3991,2048,2048
1438,3994,2048,2048
1439,3997,2048,2048
1440,4000,2050,2050
1441,4002,2051,2051
1442,4005,2052,2052
1443,4008,2054,2054
1444,4011,2057,2057
1445,4013,2060,2060
1446,4016,2064,2064
1447,4019,2069,2069
1448,4022,2074,2074
1449,4025,2080,2080
1450,4027,2086,2086
1451,4030,2091,2091
1452,4033,2096,2096
1453,4036,2100,2100
1454,4038,2102,2102
1455,4041,2103,2103
1456,4044,2102,2102
1457,4047,2100,2100
1458,4050,2096,2096
1459,4052,2091,2091
1460,4055,2086,2086
1461,4058,2080,2080
1462,4061,2074,2074
1463,4063,2069,2069
1464,4066,2064,2064
1465,4069,2060,2060
1466,4072,2057,2057
1467,4075,2054,2054
1468,4077,2052,2052
1469,4080,2051,2051
1470,4083,2050,2050
1471,4086,2049,2049
1472,4088,2049,2049
1473,4091,2048,2048
1474,4094,2048,2048
1475,4097,2048,2048
1476,4100,2048,2048
1477,4102,2048,2048
1478,4105,2048,2048
1479,4108,2048,2048
1480,4111,2048,2048
1481,4113,2048,2048
1482,4116,2048,2048
1483,4119,2048,2048
1484,4122,2048,2048
1485,4125,2048,2048
1486,4127,2048,2048
1487,4130,2048,2048
1488,4133,2048,2048
1489,4136,2048,2048
1490,4138,2048,2048
1491,4141,2051,2051
1492,4144,2052,2052
1493,4147,2055,2055
1494,4150,2058,2058
1495,4152,2063,2063
1496,4155,2069,2069
1497,4158,2078,2078
1498,4161,2089,2089
1499,4163,2103,2103
1500,4166,2120,2120
1501,4169,2141,2141
1502,4172,2165,2165
1503,4175,2192,2192
1504,4177,2221,2221
1505,4180,2252,2252
1506,4183,2284,2284
1507,4186,2314,2314
1508,4188,2342,2342
1509,4191,2365,2365
1510,4194,2383,2383
1511,4197,2394,2394
1512,4200,2398,2398
1513,4202,2394,2394
1514,4205,2383,2383
1515,4208,2365,2365
1516,4211,2342,2342
1517,4213,2314,2314
1518,4216,2284,2284
1519,4219,2252,2252
1520,4222,2221,2221
1521,4225,2192,2192
1522,4227,2165,2165
1523,4230,2141,2141
1524,4233,2120,2120
1525,4236,2103,2103
1526,4238,2089,2089
1527,4241,2078,2078
1528,4244,2069,2069
1529,4247,2063,2063
1530,4250,2058,2058
1531,4252,2055,2055
1532,4255,2052,2052
1533,4258,2048,2048
1534,4261,2048,2048
1535,4263,2048,2048
1536,4266,2048,2048
1537,4269,2048,2048
1538,4272,2048,2048
1539,4275,2048,2048
1540,4277,2048,2048
1541,4280,2048,2048
1542,4283,2048,2048
1543,4286,2048,2048
1544,4288,2048,2048
1545,4291,2048,2048
1546,4294,2048,2048
1547,4297,2048,2048
1548,4300,2048,2048
1549,4302,2048,2048
1550,4305,2048,2048
1551,4308,2048,2048
1552,4311,2048,2048
1553,4313,2048,2048
1554,4316,2048,2048
1555,4319,2048,2048
1556,4322,2048,2048
1557,4325,2048,2048
1558,4327,2048,2048
1559,4330,2048,2048
1560,4333,2048,2048
1561,4336,2048,2048
1562,4338,2048,2048
1563,4341,2049,2049
1564,4344,2049,2049
1565,4347,2049,2049
1566,4350,2050,2050
1567,4352,2051,2051
1568,4355,2051,2051
1569,4358,2053,2053
1570,4361,2054,2054
1571,4363,2056,2056
1572,4366,2058,2058
1573,4369,2060,2060
1574,4372,2063,2063
1575,4375,2067,2067
1576,4377,2070,2070
1577,4380,2075,2075
1578,4383,2080,2080
1579,4386,2085,2085
1580,4388,2091,2091
1581,4391,2097,2097
1582,4394,2103,2103
1583,4397,2109,2109
1584,4400,2115,2115
1585,4402,2120,2120
1586,4405,2125,2125
1587,4408,2130,2130
1588,4411,2133,2133
1589,4413,2136,2136
1590,4416,2137,2137
1591,4419,2138,2138
1592,4422,2137,2137
1593,4425,2136,2136
1594,4427,2133,2133
1595,4430,2130,2130
1596,4433,2125,2125
1597,4436,2120,2120
1598,4438,2115,2115
1599,4441,2109,2109
1600,4444,2103,2103
1601,4447,2097,2097
1602,4450,2091,2091
1603,4452,2085,2085
1604,4455,2080,2080
1605,4458,2075,2075
1606,4461,2070,2070
1607,4463,2067,2067
1608,4466,2063,2063
1609,4469,2060,2060
1610,4472,2058,2058
1611,4475,2056,2056
1612,4477,2054,2054
1613,4480,2053,2053
1614,4483,2051,2051
1615,4486,2051,2051
1616,4488,2050,2050
1617,4491,2049,2049
1618,4494,2049,2049
1619,4497,2048,2048
1620,4500,2048,2048
1621,4502,2048,2048
1622,4505,2048,2048
1623,4508,2048,2048
1624,4511,2048,2048
1625,4513,2048,2048
1626,4516,2048,2048
1627,4519,2048,2048
1628,4522,2048,2048
1629,4525,2048,2048
1630,4527,2048,2048
1631,4530,2048,2048
1632,4533,2048,2048
1633,4536,2048,2048
1634,4538,2048,2048
1635,4541,2048,2048
1636,4544,2048,2048
1637,4547,2048,2048
1638,4550,2048,2048
1639,4552,2048,2048
1640,4555,2048,2048
1641,4558,2048,2048
1642,4561,2048,2048
1643,4563,2048,2048
1644,4566,2048,2048
1645,4569,2048,2048
1646,4572,2048,2048
1647,4575,2048,2048
1648,4577,2048,2048
1649,4580,2048,2048
1650,4583,2048,2048
1651,4586,2048,2048
1652,4588,2048,2048
1653,4591,2048,2048
1654,4594,2048,2048
1655,4597,2048,2048
1656,4600,2048,2048
1657,4602,2048,2048
1658,4605,2048,2048
1659,4608,2048,2048
1660,4611,2048,2048
1661,4613,2048,2048
1662,4616,2048,2048
1663,4619,2048,2048
1664,4622,2048,2048
1665,4625,2048,2048
1666,4627,2048,2048
1667,4630,2048,2048
1668,4633,2048,2048
1669,4636,2048,2048
1670,4638,2048,2048
1671,4641,2048,2048
1672,4644,2048,2048
1673,4647,2048,2048
1674,4650,2048,2048
1675,4652,2048,2048
1676,4655,2048,2048
1677,4658,2048,2048
1678,4661,2048,2048
1679,4663,2048,2048
1680,4666,2048,2048
1681,4669,2048,2048
1682,4672,2048,2048
1683,4675,2048,2048
1684,4677,2048,2048
1685,4680,2048,2048
1686,4683,2048,2048
1687,4686,2048,2048
1688,4688,2048,2048
1689,4691,2048,2048
1690,4694,2048,2048
1691,4697,2048,2048
1692,4700,2048,2048
1693,4702,2048,2048
1694,4705,2048,2048
1695,4708,2048,2048
1696,4711,2048,2048
1697,4713,2048,2048
1698,4716,2048,2048
1699,4719,2048,2048
1700,4722,2048,2048
1701,4725,2048,2048
1702,4727,2048,2048
1703,4730,2048,2048
1704,4733,2048,2048
1705,4736,2048,2048
1706,4738,2048,2048
1707,4741,2048,2048
1708,4744,2048,2048
1709,4747,2048,2048
1710,4750,2048,2048
1711,4752,2048,2048
1712,4755,2048,2048
1713,4758,2048,2048
1714,4761,2048,2048
1715,4763,2048,2048
1716,4766,2048,2048
1717,4769,2048,2048
1718,4772,2048,2048
1719,4775,2048,2048
1720,4777,2048,2048
1721,4780,2048,2048
1722,4783,2048,2048
1723,4786,2048,2048
1724,4788,2048,2048
1725,4791,2048,2048
1726,4794,2048,2048
1727,4797,2048,2048
1728,4800,2050,2050
1729,4802,2051,2051
1730,4805,2052,2052
1731,4808,2054,2054
1732,4811,2057,2057
1733,4813,2060,2060
1734,4816,2064,2064
1735,4819,2069,2069
1736,4822,2074,2074
1737,4825,2080,2080
1738,4827,2086,2086
1739,4830,2091,2091
1740,4833,2096,2096
1741,4836,2100,2100
1742,4838,2102,2102
1743,4841,2103,2103
1744,4844,2102,2102
1745,4847,2100,2100
1746,4850,2096,2096
1747,4852,2091,2091
1748,4855,2086,2086
1749,4858,2080,2080
1750,4861,2074,2074
1751,4863,2069,2069
1752,4866,2064,2064
1753,4869,2060,2060
1754,4872,2057,2057
1755,4875,2054,2054
1756,4877,2052,2052
1757,4880,2051,2051
1758,4883,2050,2050
1759,4886,2049,2049
1760,4888,2049,2049
1761,4891,2048,2048
1762,4894,2048,2048
1763,4897,2048,2048
1764,4900,2048,2048
1765,4902,2048,2048
1766,4905,2048,2048
1767,4908,2048,2048
1768,4911,2048,2048
1769,4913,2048,2048
1770,4916,2048,2048
1771,4919,2048,2048
1772,4922,2048,2048
1773,4925,2048,2048
1774,4927,2048,2048
1775,4930,2048,2048
1776,4933,2048,2048
1777,4936,2048,2048
1778,4938,2048,2048
1779,4941,2051,2051
1780,4944,2052,2052
1781,4947,2055,2055
1782,4950,2058,2058
1783,4952,2063,2063
1784,4955,2069,2069
1785,4958,2078,2078
1786,4961,2089,2089
1787,4963,2103,2103
1788,4966,2120,2120
1789,4969,2141,2141
1790,4972,2165,2165
1791,4975,2192,2192
1792,4977,2221,2221
1793,4980,2252,2252
1794,4983,2284,2284
1795,4986,2314,2314
1796,4988,2342,2342
1797,4991,2365,2365
1798,4994,2383,2383
1799,4997,2394,2394
1800,5000,2398,2398
1801,5002,2394,2394
1802,5005,2383,2383
1803,5008,2365,2365
1804,5011,2342,2342
1805,5013,2314,2314
1806,5016,2284,2284
1807,5019,2252,2252
1808,5022,2221,2221
1809,5025,2192,2192
1810,5027,2165,2165
1811,5030,2141,2141
1812,5033,2120,2120
1813,5036,2103,2103
1814,5038,2089,2089
1815,5041,2078,2078
1816,5044,2069,2069
1817,5047,2063,2063
1818,5050,2058,2058
1819,5052,2055,2055
1820,5055,2052,2052
1821,5058,2048,2048
1822,5061,2048,2048
1823,5063,2048,2048
1824,5066,2048,2048
1825,5069,2048,2048
1826,5072,2048,2048
1827,5075,2048,2048
1828,5077,2048,2048
1829,5080,2048,2048
1830,5083,2048,2048
1831,5086,2048,2048
1832,5088,2048,2048
1833,5091,2048,2048
1834,5094,2048,2048
1835,5097,2048,2048
1836,5100,2048,2048
1837,5102,2048,2048
1838,5105,2048,2048
1839,5108,2048,2048
1840,5111,2048,2048
1841,5113,2048,2048
1842,5116,2048,2048
1843,5119,2048,2048
1844,5122,2048,2048
1845,5125,2048,2048
1846,5127,2048,2048
1847,5130,2048,2048
1848,5133,2048,2048
1849,5136,2048,2048
1850,5138,2048,2048
1851,5141,2049,2049
1852,5144,2049,2049
1853,5147,2049,2049
1854,5150,2050,2050
1855,5152,2051,2051
1856,5155,2051,2051
1857,5158,2053,2053
1858,5161,2054,2054
1859,5163,2056,2056
1860,5166,2058,2058
1861,5169,2060,2060
1862,5172,2063,2063
1863,5175,2067,2067
1864,5177,2070,2070
1865,5180,2075,2075
1866,5183,2080,2080
1867,5186,2085,2085
1868,5188,2091,2091
1869,5191,2097,2097
1870,5194,2103,2103
1871,5197,2109,2109
1872,5200,2115,2115
1873,5202,2120,2120
1874,5205,2125,2125
1875,5208,2130,2130
1876,5211,2133,2133
1877,5213,2136,2136
1878,5216,2137,2137
1879,5219,2138,2138
1880,5222,2137,2137
1881,5225,2136,2136
1882,5227,2133,2133
1883,5230,2130,2130
1884,5233,2125,2125
1885,5236,2120,2120
1886,5238,2115,2115
1887,5241,2109,2109
1888,5244,2103,2103
1889,5247,2097,2097
1890,5250,2091,2091
1891,5252,2085,2085
1892,5255,2080,2080
1893,5258,2075,2075
1894,5261,2070,2070
1895,5263,2067,2067
1896,5266,2063,2063
1897,5269,2060,2060
1898,5272,2058,2058
1899,5275,2056,2056
1900,5277,2054,2054
1901,5280,2053,2053
1902,5283,2051,2051
1903,5286,2051,2051
1904,5288,2050,2050
1905,5291,2049,2049
1906,5294,2049,2049
1907,5297,2048,2048
1908,5300,2048,2048
1909,5302,2048,2048
1910,5305,2048,2048
1911,5308,2048,2048
1912,5311,2048,2048
1913,5313,2048,2048
1914,5316,2048,2048
1915,5319,2048,2048
1916,5322,2048,2048
1917,5325,2048,2048
1918,5327,2048,2048
1919,5330,2048,2048
1920,5333,2048,2048
1921,5336,2048,2048
1922,5338,2048,2048
1923,5341,2048,2048
1924,5344,2048,2048
1925,5347,2048,2048
1926,5350,2048,2048
1927,5352,2048,2048
1928,5355,2048,2048
1929,5358,2048,2048
1930,5361,2054,2054
1931,5363,2055,2055
1932,5366,2057,2057
1933,5369,2058,2058
1934,5372,2060,2060
1935,5375,2063,2063
1936,5377,2066,2066
1937,5380,2069,2069
1938,5383,2073,2073
1939,5386,2077,2077
1940,5388,2082,2082
1941,5391,2087,2087
1942,5394,2094,2094
1943,5397,2101,2101
1944,5400,2109,2109
1945,5402,2118,2118
1946,5405,2128,2128
1947,5408,2139,2139
1948,5411,2151,2151
1949,5413,2165,2165
1950,5416,2179,2179
1951,5419,2195,2195
1952,5422,2212,2212
1953,5425,2231,2231
1954,5427,2251,2251
1955,5430,2272,2272
1956,5433,2294,2294
1957,5436,2317,2317
1958,5438,2342,2342
1959,5441,2367,2367
1960,5444,2394,2394
1961,5447,2421,2421
1962,5450,2449,2449
1963,5452,2477,2477
1964,5455,2505,2505
1965,5458,2533,2533
1966,5461,2561,2561
1967,5463,2589,2589
1968,5466,2616,2616
1969,5469,2641,2641
1970,5472,2666,2666
1971,5475,2689,2689
1972,5477,2711,2711
1973,5480,2730,2730
1974,5483,2748,2748
1975,5486,2763,2763
1976,5488,2775,2775
1977,5491,2785,2785
1978,5494,2792,2792
1979,5497,2797,2797
1980,5500,2798,2798
1981,5502,2797,2797
1982,5505,2792,2792
1983,5508,2785,2785
1984,5511,2775,2775
1985,5513,2763,2763
1986,5516,2748,2748
1987,5519,2730,2730
1988,5522,2711,2711
1989,5525,2689,2689
1990,5527,2666,2666
1991,5530,2641,2641
1992,5533,2616,2616
1993,5536,2589,2589
1994,5538,2561,2561
1995,5541,2533,2533
1996,5544,2505,2505
1997,5547,2477,2477
1998,5550,2449,2449
1999,5552,2421,2421
2000,5555,2394,2394
2001,5558,2367,2367
2002,5561,2342,2342
2003,5563,2317,2317
2004,5566,2294,2294
2005,5569,2272,2272
2006,5572,2251,2251
2007,5575,2231,2231
2008,5577,2212,2212
2009,5580,2195,2195
2010,5583,2179,2179
2011,5586,2165,2165
2012,5588,2151,2151
2013,5591,2139,2139
2014,5594,2128,2128
2015,5597,2118,2118
2016,5600,2109,2109
2017,5602,2101,2101
2018,5605,2094,2094
2019,5608,2087,2087
2020,5611,2082,2082
2021,5613,2077,2077
2022,5616,2073,2073
2023,5619,2069,2069
2024,5622,2066,2066
2025,5625,2063,2063
2026,5627,2060,2060
2027,5630,2058,2058
2028,5633,2057,2057
2029,5636,2055,2055
2030,5638,2048,2048
2031,5641,2047,2047
2032,5644,2047,2047
2033,5647,2046,2046
2034,5650,2045,2045
2035,5652,2045,2045
2036,5655,2043,2043
2037,5658,2042,2042
2038,5661,2040,2040
2039,5663,2038,2038
2040,5666,2035,2035
2041,5669,2032,2032
2042,5672,2028,2028
2043,5675,2023,2023
2044,5677,2018,2018
2045,5680,2012,2012
2046,5683,2006,2006
2047,5686,1999,1999
2048,5688,1991,1991
2049,5691,1983,1983
2050,5694,1975,1975
2051,5697,1967,1967
2052,5700,1959,1959
2053,5702,1952,1952
2054,5705,1945,1945
2055,5708,1939,1939
2056,5711,1934,1934
2057,5713,1931,1931
2058,5716,1929,1929
2059,5719,1928,1928
2060,5722,1929,1929
2061,5725,1931,1931
2062,5727,1934,1934
2063,5730,1939,1939
2064,5733,1945,1945
2065,5736,1952,1952
2066,5738,1959,1959
2067,5741,1967,1967
2068,5744,1975,1975
2069,5747,1983,1983
2070,5750,1991,1991
2071,5752,1999,1999
2072,5755,2006,2006
2073,5758,2012,2012
2074,5761,2018,2018
2075,5763,2023,2023
2076,5766,2028,2028
2077,5769,2032,2032
2078,5772,2035,2035
2079,5775,2038,2038
2080,5777,2040,2040
2081,5780,2042,2042
2082,5783,2043,2043
2083,5786,2045,2045
2084,5788,2045,2045
2085,5791,2046,2046
2086,5794,2047,2047
2087,5797,2048,2048
2088,5800,2048,2048
2089,5802,2048,2048
2090,5805,2048,2048
2091,5808,2048,2048
2092,5811,2048,2048
2093,5813,2048,2048
2094,5816,2048,2048
2095,5819,2048,2048
2096,5822,2048,2048
2097,5825,2048,2048
2098,5827,2048,2048
2099,5830,2048,2048
2100,5833,2048,2048
2101,5836,2048,2048
2102,5838,2048,2048
2103,5841,2048,2048
2104,5844,2048,2048
2105,5847,2048,2048
2106,5850,2048,2048
2107,5852,2048,2048
2108,5855,2048,2048
2109,5858,2048,2048
2110,5861,2048,2048
2111,5863,2048,2048
2112,5866,2048,2048
2113,5869,2048,2048
2114,5872,2048,2048
2115,5875,2048,2048
2116,5877,2048,2048
2117,5880,2048,2048
2118,5883,2048,2048
2119,5886,2048,2048
2120,5888,2048,2048
2121,5891,2048,2048
2122,5894,2048,2048
2123,5897,2048,2048
2124,5900,2048,2048
2125,5902,2048,2048
2126,5905,2048,2048
2127,5908,2048,2048
2128,5911,2048,2048
2129,5913,2048,2048
2130,5916,2048,2048
2131,5919,2048,2048
2132,5922,2048,2048
2133,5925,2048,2048
2134,5927,2048,2048
2135,5930,2048,2048
2136,5933,2048,2048
2137,5936,2048,2048
2138,5938,2048,2048
2139,5941,2048,2048
2140,5944,2048,2048
2141,5947,2048,2048
2142,5950,2048,2048
2143,5952,2048,2048
2144,5955,2048,2048
2145,5958,2048,2048
2146,5961,2048,2048
2147,5963,2048,2048
2148,5966,2048,2048
2149,5969,2048,2048
2150,5972,2048,2048
2151,5975,2048,2048
2152,5977,2048,2048
2153,5980,2048,2048
2154,5983,2048,2048
2155,5986,2048,2048
2156,5988,2048,2048
2157,5991,2048,2048
2158,5994,2048,2048
2159,5997,2048,2048
2160,6000,2048,2048
2161,6002,2048,2048
2162,6005,2048,2048
2163,6008,2048,2048
2164,6011,2048,2048
2165,6013,2048,2048
2166,6016,2048,2048
2167,6019,2048,2048
2168,6022,2048,2048
2169,6025,2048,2048
2170,6027,2048,2048
2171,6030,2048,2048
2172,6033,2048,2048
2173,6036,2048,2048
2174,6038,2048,2048
2175,6041,2048,2048
2176,6044,2048,2048
2177,6047,2048,2048
2178,6050,2048,2048
2179,6052,2048,2048
2180,6055,2048,2048
2181,6058,2048,2048
2182,6061,2048,2048
2183,6063,2048,2048
2184,6066,2048,2048
2185,6069,2048,2048
2186,6072,2048,2048
2187,6075,2048,2048
2188,6077,2048,2048
2189,6080,2048,2048
2190,6083,2048,2048
2191,6086,2048,2048
2192,6088,2048,2048
2193,6091,2048,2048
2194,6094,2048,2048
2195,6097,2048,2048
2196,6100,2048,2048
2197,6102,2048,2048
2198,6105,2048,2048
2199,6108,2048,2048
2200,6111,2048,2048
2201,6113,2048,2048
2202,6116,2048,2048
2203,6119,2048,2048
2204,6122,2048,2048
2205,6125,2048,2048
2206,6127,2048,2048
2207,6130,2048,2048
2208,6133,2048,2048
2209,6136,2048,2048
2210,6138,2048,2048
2211,6141,2048,2048
2212,6144,2048,2048
2213,6147,2048,2048
2214,6150,2048,2048
2215,6152,2048,2048
2216,6155,2048,2048
2217,6158,2048,2048
2218,6161,2048,2048
2219,6163,2048,2048
2220,6166,2048,2048
2221,6169,2048,2048
2222,6172,2048,2048
2223,6175,2048,2048
2224,6177,2048,2048
2225,6180,2048,2048
2226,6183,2048,2048
2227,6186,2048,2048
2228,6188,2048,2048
2229,6191,2048,2048
2230,6194,2048,2048
2231,6197,2048,2048
2232,6200,2048,2048
2233,6202,2048,2048
2234,6205,2048,2048
2235,6208,2048,2048
2236,6211,2048,2048
2237,6213,2048,2048
2238,6216,2048,2048
2239,6219,2048,2048
2240,6222,2048,2048
2241,6225,2048,2048
2242,6227,2048,2048
2243,6230,2048,2048
2244,6233,2048,2048
2245,6236,2048,2048
2246,6238,2048,2048
2247,6241,2048,2048
2248,6244,2048,2048
2249,6247,2048,2048
2250,6250,2048,2048
2251,6252,2048,2048
2252,6255,2048,2048
2253,6258,2048,2048
2254,6261,2048,2048
2255,6263,2048,2048
2256,6266,2048,2048
2257,6269,2048,2048
2258,6272,2048,2048
2259,6275,2048,2048
2260,6277,2048,2048
2261,6280,2048,2048
2262,6283,2048,2048
2263,6286,2048,2048
2264,6288,2048,2048
2265,6291,2048,2048
2266,6294,2048,2048
2267,6297,2048,2048
2268,6300,2048,2048
2269,6302,2048,2048
2270,6305,2048,2048
2271,6308,2048,2048
2272,6311,2048,2048
2273,6313,2048,2048
2274,6316,2048,2048
2275,6319,2048,2048
2276,6322,2048,2048
2277,6325,2048,2048
2278,6327,2048,2048
2279,6330,2048,2048
2280,6333,2048,2048
2281,6336,2048,2048
2282,6338,2048,2048
2283,6341,2048,2048
2284,6344,2048,2048
2285,6347,2048,2048
2286,6350,2048,2048
2287,6352,2048,2048
2288,6355,2048,2048
2289,6358,2048,2048
2290,6361,2048,2048
2291,6363,2048,2048
2292,6366,2048,2048
2293,6369,2048,2048
2294,6372,2048,2048
2295,6375,2048,2048
2296,6377,2048,2048
2297,6380,2048,2048
2298,6383,2048,2048
2299,6386,2048,2048
2300,6388,2048,2048
2301,6391,2048,2048
2302,6394,2048,2048
2303,6397,2048,2048
2304,6400,2050,2050
2305,6402,2051,2051
2306,6405,2052,2052
2307,6408,2054,2054
2308,6411,2057,2057
2309,6413,2060,2060
2310,6416,2064,2064
2311,6419,2069,2069
2312,6422,2074,2074
2313,6425,2080,2080
2314,6427,2086,2086
2315,6430,2091,2091
2316,6433,2096,2096
2317,6436,2100,2100
2318,6438,2102,2102
2319,6441,2103,2103
2320,6444,2102,2102
2321,6447,2100,2100
2322,6450,2096,2096
2323,6452,2091,2091
2324,6455,2086,2086
2325,6458,2080,2080
2326,6461,2074,2074
2327,6463,2069,2069
2328,6466,2064,2064
2329,6469,2060,2060
2330,6472,2057,2057
2331,6475,2054,2054
2332,6477,2052,2052
2333,6480,2051,2051
2334,6483,2050,2050
2335,6486,2049,2049
2336,6488,2049,2049
2337,6491,2048,2048
2338,6494,2048,2048
2339,6497,2048,2048
2340,6500,2048,2048
2341,6502,2048,2048
2342,6505,2048,2048
2343,6508,2048,2048
2344,6511,2048,2048
2345,6513,2048,2048
2346,6516,2048,2048
2347,6519,2048,2048
2348,6522,2048,2048
2349,6525,2048,2048
2350,6527,2048,2048
2351,6530,2048,2048
2352,6533,2048,2048
2353,6536,2048,2048
2354,6538,2048,2048
2355,6541,2051,2051
2356,6544,2052,2052
2357,6547,2055,2055
2358,6550,2058,2058
2359,6552,2063,2063
2360,6555,2069,2069
2361,6558,2078,2078
2362,6561,2089,2089
2363,6563,2103,2103
2364,6566,2120,2120
2365,6569,2141,2141
2366,6572,2165,2165
2367,6575,2192,2192
2368,6577,2221,2221
2369,6580,2252,2252
2370,6583,2284,2284
2371,6586,2314,2314
2372,6588,2342,2342
2373,6591,2365,2365
2374,6594,2383,2383
2375,6597,2394,2394
2376,6600,2398,2398
2377,6602,2394,2394
2378,6605,2383,2383
2379,6608,2365,2365
2380,6611,2342,2342
2381,6613,2314,2314
2382,6616,2284,2284
2383,6619,2252,2252
2384,6622,2221,2221
2385,6625,2192,2192
2386,6627,2165,2165
2387,6630,2141,2141
2388,6633,2120,2120
2389,6636,2103,2103
2390,6638,2089,2089
2391,6641,2078,2078
2392,6644,2069,2069
2393,6647,2063,2063
2394,6650,2058,2058
2395,6652,2055,2055
2396,6655,2052,2052
2397,6658,2048,2048
2398,6661,2048,2048
2399,6663,2048,2048
2400,6666,2048,2048
2401,6669,2048,2048
2402,6672,2048,2048
2403,6675,2048,2048
2404,6677,2048,2048
2405,6680,2048,2048
2406,6683,2048,2048
2407,6686,2048,2048
2408,6688,2048,2048
2409,6691,2048,2048
2410,6694,2048,2048
2411,6697,2048,2048
2412,6700,2048,2048
2413,6702,2048,2048
2414,6705,2048,2048
2415,6708,2048,2048
2416,6711,2048,2048
2417,6713,2048,2048
2418,6716,2048,2048
2419,6719,2048,2048
2420,6722,2048,2048
2421,6725,2048,2048
2422,6727,2048,2048
2423,6730,2048,2048
2424,6733,2048,2048
2425,6736,2048,2048
2426,6738,2048,2048
2427,6741,2049,2049
2428,6744,2049,2049
2429,6747,2049,2049
2430,6750,2050,2050
2431,6752,2051,2051
2432,6755,2051,2051
2433,6758,2053,2053
2434,6761,2054,2054
2435,6763,2056,2056
2436,6766,2058,2058
2437,6769,2060,2060
2438,6772,2063,2063
2439,6775,2067,2067
2440,6777,2070,2070
2441,6780,2075,2075
2442,6783,2080,2080
2443,6786,2085,2085
2444,6788,2091,2091
2445,6791,2097,2097
2446,6794,2103,2103
2447,6797,2109,2109
2448,6800,2115,2115
2449,6802,2120,2120
2450,6805,2125,2125
2451,6808,2130,2130
2452,6811,2133,2133
2453,6813,2136,2136
2454,6816,2137,2137
2455,6819,2138,2138
2456,6822,2137,2137
2457,6825,2136,2136
2458,6827,2133,2133
2459,6830,2130,2130
2460,6833,2125,2125
2461,6836,2120,2120
2462,6838,2115,2115
2463,6841,2109,2109
2464,6844,2103,2103
2465,6847,2097,2097
2466,6850,2091,2091
2467,6852,2085,2085
2468,6855,2080,2080
2469,6858,2075,2075
2470,6861,2070,2070
2471,6863,2067,2067
2472,6866,2063,2063
2473,6869,2060,2060
2474,6872,2058,2058
2475,6875,2056,2056
2476,6877,2054,2054
2477,6880,2053,2053
2478,6883,2051,2051
2479,6886,2051,2051
2480,6888,2050,2050
2481,6891,2049,2049
2482,6894,2049,2049
2483,6897,2048,2048
2484,6900,2048,2048
2485,6902,2048,2048
2486,6905,2048,2048
2487,6908,2048,2048
2488,6911,2048,2048
2489,6913,2048,2048
2490,6916,2048,2048
2491,6919,2048,2048
2492,6922,2048,2048
2493,6925,2048,2048
2494,6927,2048,2048
2495,6930,2048,2048
2496,6933,2048,2048
2497,6936,2048,2048
2498,6938,2048,2048
2499,6941,2048,2048
2500,6944,2048,2048
2501,6947,2048,2048
2502,6950,2048,2048
2503,6952,2048,2048
2504,6955,2048,2048
2505,6958,2048,2048
2506,6961,2054,2054
2507,6963,2055,2055
2508,6966,2057,2057
2509,6969,2058,2058
2510,6972,2060,2060
2511,6975,2063,2063
2512,6977,2066,2066
2513,6980,2069,2069
2514,6983,2073,2073
2515,6986,2077,2077
2516,6988,2082,2082
2517,6991,2087,2087
2518,6994,2094,2094
2519,6997,2101,2101
2520,7000,2109,2109
2521,7002,2118,2118
2522,7005,2128,2128
2523,7008,2139,2139
2524,7011,2151,2151
2525,7013,2165,2165
2526,7016,2179,2179
2527,7019,2195,2195
2528,7022,2212,2212
2529,7025,2231,2231
2530,7027,2251,2251
2531,7030,2272,2272
2532,7033,2294,2294
2533,7036,2317,2317
2534,7038,2342,2342
2535,7041,2367,2367
2536,7044,2394,2394
2537,7047,2421,2421
2538,7050,2449,2449
2539,7052,2477,2477
2540,7055,2505,2505
2541,7058,2533,2533
2542,7061,2561,2561
2543,7063,2589,2589
2544,7066,2616,2616
2545,7069,2641,2641
2546,7072,2666,2666
2547,7075,2689,2689
2548,7077,2711,2711
2549,7080,2730,2730
2550,7083,2748,2748
2551,7086,2763,2763
2552,7088,2775,2775
2553,7091,2785,2785
2554,7094,2792,2792
2555,7097,2797,2797
2556,7100,2798,2798
2557,7102,2797,2797
2558,7105,2792,2792
2559,7108,2785,2785
2560,7111,2775,2775
2561,7113,2763,2763
2562,7116,2748,2748
2563,7119,2730,2730
2564,7122,2711,2711
2565,7125,2689,2689
2566,7127,2666,2666
2567,7130,2641,2641
2568,7133,2616,2616
2569,7136,2589,2589
2570,7138,2561,2561
2571,7141,2533,2533
2572,7144,2505,2505
2573,7147,2477,2477
2574,7150,2449,2449
2575,7152,2421,2421
2576,7155,2394,2394
2577,7158,2367,2367
2578,7161,2342,2342
2579,7163,2317,2317
2580,7166,2294,2294
2581,7169,2272,2272
2582,7172,2251,2251
2583,7175,2231,2231
2584,7177,2212,2212
2585,7180,2195,2195
2586,7183,2179,2179
2587,7186,2165,2165
2588,7188,2151,2151
2589,7191,2139,2139
2590,7194,2128,2128
2591,7197,2118,2118
2592,7200,2109,2109
2593,7202,2101,2101
2594,7205,2094,2094
2595,7208,2087,2087
2596,7211,2082,2082
2597,7213,2077,2077
2598,7216,2073,2073
2599,7219,2069,2069
2600,7222,2066,2066
2601,7225,2063,2063
2602,7227,2060,2060
2603,7230,2058,2058
2604,7233,2057,2057
2605,7236,2055,2055
2606,7238,2048,2048
2607,7241,2047,2047
2608,7244,2047,2047
2609,7247,2046,2046
2610,7250,2045,2045
2611,7252,2045,2045
2612,7255,2043,2043
2613,7258,2042,2042
2614,7261,2040,2040
2615,7263,2038,2038
2616,7266,2035,2035
2617,7269,2032,2032
2618,7272,2028,2028
2619,7275,2023,2023
2620,7277,2018,2018
2621,7280,2012,2012
2622,7283,2006,2006
2623,7286,1999,1999
2624,7288,1991,1991
2625,7291,1983,1983
2626,7294,1975,1975
2627,7297,1967,1967
2628,7300,1959,1959
2629,7302,1952,1952
2630,7305,1945,1945
2631,7308,1939,1939
2632,7311,1934,1934
2633,7313,1931,1931
2634,7316,1929,1929
2635,7319,1928,1928
2636,7322,1929,1929
2637,7325,1931,1931
2638,7327,1934,1934
2639,7330,1939,1939
2640,7333,1945,1945
2641,7336,1952,1952
2642,7338,1959,1959
2643,7341,1967,1967
2644,7344,1975,1975
2645,7347,1983,1983
2646,7350,1991,1991
2647,7352,1999,1999
2648,7355,2006,2006
2649,7358,2012,2012
2650,7361,2018,2018
2651,7363,2023,2023
2652,7366,2028,2028
2653,7369,2032,2032
2654,7372,2035,2035
2655,7375,2038,2038
2656,7377,2040,2040
2657,7380,2042,2042
2658,7383,2043,2043
2659,7386,2045,2045
2660,7388,2045,2045
2661,7391,2046,2046
2662,7394,2047,2047
2663,7397,2048,2048
2664,7400,2048,2048
2665,7402,2048,2048
2666,7405,2048,2048
2667,7408,2048,2048
2668,7411,2048,2048
2669,7413,2048,2048
2670,7416,2048,2048
2671,7419,2048,2048
2672,7422,2048,2048
2673,7425,2048,2048
2674,7427,2048,2048
2675,7430,2048,2048
2676,7433,2048,2048
2677,7436,2048,2048
2678,7438,2048,2048
2679,7441,2048,2048
2680,7444,2048,2048
2681,7447,2048,2048
2682,7450,2048,2048
2683,7452,2048,2048
2684,7455,2048,2048
2685,7458,2048,2048
2686,7461,2048,2048
2687,7463,2048,2048
2688,7466,2048,2048
2689,7469,2048,2048
2690,7472,2048,2048
2691,7475,2048,2048
2692,7477,2048,2048
2693,7480,2048,2048
2694,7483,2048,2048
2695,7486,2048,2048
2696,7488,2048,2048
2697,7491,2048,2048
2698,7494,2048,2048
2699,7497,2048,2048
2700,7500,2048,2048
2701,7502,2048,2048
2702,7505,2048,2048
2703,7508,2048,2048
2704,7511,2048,2048
2705,7513,2048,2048
2706,7516,2048,2048
2707,7519,2048,2048
2708,7522,2048,2048
2709,7525,2048,2048
2710,7527,2048,2048
2711,7530,2048,2048
2712,7533,2048,2048
2713,7536,2048,2048
2714,7538,2048,2048
2715,7541,2048,2048
2716,7544,2048,2048
2717,7547,2048,2048
2718,7550,2048,2048
2719,7552,2048,2048
2720,7555,2048,2048
2721,7558,2048,2048
2722,7561,2048,2048
2723,7563,2048,2048
2724,7566,2048,2048
2725,7569,2048,2048
2726,7572,2048,2048
2727,7575,2048,2048
2728,7577,2048,2048
2729,7580,2048,2048
2730,7583,2048,2048
2731,7586,2048,2048
2732,7588,2048,2048
2733,7591,2048,2048
2734,7594,2048,2048
2735,7597,2048,2048
2736,7600,2048,2048
2737,7602,2048,2048
2738,7605,2048,2048
2739,7608,2048,2048
2740,7611,2048,2048
2741,7613,2048,2048
2742,7616,2048,2048
2743,7619,2048,2048
2744,7622,2048,2048
2745,7625,2048,2048
2746,7627,2048,2048
2747,7630,2048,2048
2748,7633,2048,2048
2749,7636,2048,2048
2750,7638,2048,2048
2751,7641,2048,2048
2752,7644,2048,2048
2753,7647,2048,2048
2754,7650,2048,2048
2755,7652,2048,2048
2756,7655,2048,2048
2757,7658,2048,2048
2758,7661,2048,2048
2759,7663,2048,2048
2760,7666,2048,2048
2761,7669,2048,2048
2762,7672,2048,2048
2763,7675,2048,2048
2764,7677,2048,2048
2765,7680,2048,2048
2766,7683,2048,2048
2767,7686,2048,2048
2768,7688,2048,2048
2769,7691,2048,2048
2770,7694,2048,2048
2771,7697,2048,2048
2772,7700,2048,2048
2773,7702,2048,2048
2774,7705,2048,2048
2775,7708,2048,2048
2776,7711,2048,2048
2777,7713,2048,2048
2778,7716,2048,2048
2779,7719,2048,2048
2780,7722,2048,2048
2781,7725,2048,2048
2782,7727,2048,2048
2783,7730,2048,2048
2784,7733,2048,2048
2785,7736,2048,2048
2786,7738,2048,2048
2787,7741,2048,2048
2788,7744,2048,2048
2789,7747,2048,2048
2790,7750,2048,2048
2791,7752,2048,2048
2792,7755,2048,2048
2793,7758,2048,2048
2794,7761,2048,2048
2795,7763,2048,2048
2796,7766,2048,2048
2797,7769,2048,2048
2798,7772,2048,2048
2799,7775,2048,2048
2800,7777,2048,2048
2801,7780,2048,2048
2802,7783,2048,2048
2803,7786,2048,2048
2804,7788,2048,2048
2805,7791,2048,2048
2806,7794,2048,2048
2807,7797,2048,2048
2808,7800,2048,2048
2809,7802,2048,2048
2810,7805,2048,2048
2811,7808,2048,2048
2812,7811,2048,2048
2813,7813,2048,2048
2814,7816,2048,2048
2815,7819,2048,2048
2816,7822,2048,2048
2817,7825,2048,2048
2818,7827,2048,2048
2819,7830,2048,2048
2820,7833,2048,2048
2821,7836,2048,2048
2822,7838,2048,2048
2823,7841,2048,2048
2824,7844,2048,2048
2825,7847,2048,2048
2826,7850,2048,2048
2827,7852,2048,2048
2828,7855,2048,2048
2829,7858,2048,2048
2830,7861,2048,2048
2831,7863,2048,2048
2832,7866,2048,2048
2833,7869,2048,2048
2834,7872,2048,2048
2835,7875,2048,2048
2836,7877,2048,2048
2837,7880,2048,2048
2838,7883,2048,2048
2839,7886,2048,2048
2840,7888,2048,2048
2841,7891,2048,2048
2842,7894,2048,2048
2843,7897,2048,2048
2844,7900,2048,2048
2845,7902,2048,2048
2846,7905,2048,2048
2847,7908,2048,2048
2848,7911,2048,2048
2849,7913,2048,2048
2850,7916,2048,2048
2851,7919,2048,2048
2852,7922,2048,2048
2853,7925,2048,2048
2854,7927,2048,2048
2855,7930,2048,2048
2856,7933,2048,2048
2857,7936,2048,2048
2858,7938,2048,2048
2859,7941,2048,2048
2860,7944,2048,2048
2861,7947,2048,2048
2862,7950,2048,2048
2863,7952,2048,2048
2864,7955,2048,2048
2865,7958,2048,2048
2866,7961,2048,2048
2867,7963,2048,2048
2868,7966,2048,2048
2869,7969,2048,2048
2870,7972,2048,2048
2871,7975,2048,2048
2872,7977,2048,2048
2873,7980,2048,2048
2874,7983,2048,2048
2875,7986,2048,2048
2876,7988,2048,2048
2877,7991,2048,2048
2878,7994,2048,2048
2879,7997,2048,2048
2880,8000,2050,2050
2881,8002,2051,2051
2882,8005,2052,2052
2883,8008,2054,2054
2884,8011,2057,2057
2885,8013,2060,2060
2886,8016,2064,2064
2887,8019,2069,2069
2888,8022,2074,2074
2889,8025,2080,2080
2890,8027,2086,2086
2891,8030,2091,2091
2892,8033,2096,2096
2893,8036,2100,2100
2894,8038,2102,2102
2895,8041,2103,2103
2896,8044,2102,2102
2897,8047,2100,2100
2898,8050,2096,2096
2899,8052,2091,2091
2900,8055,2086,2086
2901,8058,2080,2080
2902,8061,2074,2074
2903,8063,2069,2069
2904,8066,2064,2064
2905,8069,2060,2060
2906,8072,2057,2057
2907,8075,2054,2054
2908,8077,2052,2052
2909,8080,2051,2051
2910,8083,2050,2050
2911,8086,2049,2049
2912,8088,2049,2049
2913,8091,2048,2048
2914,8094,2048,2048
2915,8097,2048,2048
2916,8100,2048,2048
2917,8102,2048,2048
2918,8105,2048,2048
2919,8108,2048,2048
2920,8111,2048,2048
2921,8113,2048,2048
2922,8116,2048,2048
2923,8119,2048,2048
2924,8122,2048,2048
2925,8125,2048,2048
2926,8127,2048,2048
2927,8130,2048,2048
2928,8133,2048,2048
2929,8136,2048,2048
2930,8138,2048,2048
2931,8141,2051,2051
2932,8144,2052,2052
2933,8147,2055,2055
2934,8150,2058,2058
2935,8152,2063,2063
2936,8155,2069,2069
2937,8158,2078,2078
2938,8161,2089,2089
2939,8163,2103,2103
2940,8166,2120,2120
2941,8169,2141,2141
2942,8172,2165,2165
2943,8175,2192,2192
2944,8177,2221,2221
2945,8180,2252,2252
2946,8183,2284,2284
2947,8186,2314,2314
2948,8188,2342,2342
2949,8191,2365,2365
2950,8194,2383,2383
2951,8197,2394,2394
2952,8200,2398,2398
2953,8202,2394,2394
2954,8205,2383,2383
2955,8208,2365,2365
2956,8211,2342,2342
2957,8213,2314,2314
2958,8216,2284,2284
2959,8219,2252,2252
2960,8222,2221,2221
2961,8225,2192,2192
2962,8227,2165,2165
2963,8230,2141,2141
2964,8233,2120,2120
2965,8236,2103,2103
2966,8238,2089,2089
2967,8241,2078,2078
2968,8244,2069,2069
2969,8247,2063,2063
2970,8250,2058,2058
2971,8252,2055,2055
2972,8255,2052,2052
2973,8258,2048,2048
2974,8261,2048,2048
2975,8263,2048,2048
2976,8266,2048,2048
2977,8269,2048,2048
2978,8272,2048,2048
2979,8275,2048,2048
2980,8277,2048,2048
2981,8280,2048,2048
2982,8283,2048,2048
2983,8286,2048,2048
2984,8288,2048,2048
2985,8291,2048,2048
2986,8294,2048,2048
2987,8297,2048,2048
2988,8300,2048,2048
2989,8302,2048,2048
2990,8305,2048,2048
2991,8308,2048,2048
2992,8311,2048,2048
2993,8313,2048,2048
2994,8316,2048,2048
2995,8319,2048,2048
2996,8322,2048,2048
2997,8325,2048,2048
2998,8327,2048,2048
2999,8330,2048,2048
3000,8333,2048,2048
3001,8336,2048,2048
3002,8338,2048,2048
3003,8341,2049,2049
3004,8344,2049,2049
3005,8347,2049,2049
3006,8350,2050,2050
3007,8352,2051,2051
3008,8355,2051,2051
3009,8358,2053,2053
3010,8361,2054,2054
3011,8363,2056,2056
3012,8366,2058,2058
3013,8369,2060,2060
3014,8372,2063,2063
3015,8375,2067,2067
3016,8377,2070,2070
3017,8380,2075,2075
3018,8383,2080,2080
3019,8386,2085,2085
3020,8388,2091,2091
3021,8391,2097,2097
3022,8394,2103,2103
3023,8397,2109,2109
3024,8400,2115,2115
3025,8402,2120,2120
3026,8405,2125,2125
3027,8408,2130,2130
3028,8411,2133,2133
3029,8413,2136,2136
3030,8416,2137,2137
3031,8419,2138,2138
3032,8422,2137,2137
3033,8425,2136,2136
3034,8427,2133,2133
3035,8430,2130,2130
3036,8433,2125,2125
3037,8436,2120,2120
3038,8438,2115,2115
3039,8441,2109,2109
3040,8444,2103,2103
3041,8447,2097,2097
3042,8450,2091,2091
3043,8452,2085,2085
3044,8455,2080,2080
3045,8458,2075,2075
3046,8461,2070,2070
3047,8463,2067,2067
3048,8466,2063,2063
3049,8469,2060,2060
3050,8472,2058,2058
3051,8475,2056,2056
3052,8477,2054,2054
3053,8480,2053,2053
3054,8483,2051,2051
3055,8486,2051,2051
3056,8488,2050,2050
3057,8491,2049,2049
3058,8494,2049,2049
3059,8497,2048,2048
3060,8500,2048,2048
3061,8502,2048,2048
3062,8505,2048,2048
3063,8508,2048,2048
3064,8511,2048,2048
3065,8513,2048,2048
3066,8516,2048,2048
3067,8519,2048,2048
3068,8522,2048,2048
3069,8525,2048,2048
3070,8527,2048,2048
3071,8530,2048,2048
3072,8533,2048,2048
3073,8536,2048,2048
3074,8538,2048,2048
3075,8541,2048,2048
3076,8544,2048,2048
3077,8547,2048,2048
3078,8550,2048,2048
3079,8552,2048,2048
3080,8555,2048,2048
3081,8558,2048,2048
3082,8561,2054,2054
3083,8563,2055,2055
3084,8566,2057,2057
3085,8569,2058,2058
3086,8572,2060,2060
3087,8575,2063,2063
3088,8577,2066,2066
3089,8580,2069,2069
3090,8583,2073,2073
3091,8586,2077,2077
3092,8588,2082,2082
3093,8591,2087,2087
3094,8594,2094,2094
3095,8597,2101,2101
3096,8600,2109,2109
3097,8602,2118,2118
3098,8605,2128,2128
3099,8608,2139,2139
3100,8611,2151,2151
3101,8613,2165,2165
3102,8616,2179,2179
3103,8619,2195,2195
3104,8622,2212,2212
3105,8625,2231,2231
3106,8627,2251,2251
3107,8630,2272,2272
3108,8633,2294,2294
3109,8636,2317,2317
3110,8638,2342,2342
3111,8641,2367,2367
3112,8644,2394,2394
3113,8647,2421,2421
3114,8650,2449,2449
3115,8652,2477,2477
3116,8655,2505,2505
3117,8658,2533,2533
3118,8661,2561,2561
3119,8663,2589,2589
3120,8666,2616,2616
3121,8669,2641,2641
3122,8672,2666,2666
3123,8675,2689,2689
3124,8677,2711,2711
3125,8680,2730,2730
3126,8683,2748,2748
3127,8686,2763,2763
3128,8688,2775,2775
3129,8691,2785,2785
3130,8694,2792,2792
3131,8697,2797,2797
3132,8700,2798,2798
3133,8702,2797,2797
3134,8705,2792,2792
3135,8708,2785,2785
3136,8711,2775,2775
3137,8713,2763,2763
3138,8716,2748,2748
3139,8719,2730,2730
3140,8722,2711,2711
3141,8725,2689,2689
3142,8727,2666,2666
3143,8730,2641,2641
3144,8733,2616,2616
3145,8736,2589,2589
3146,8738,2561,2561
3147,8741,2533,2533
3148,8744,2505,2505
3149,8747,2477,2477
3150,8750,2449,2449
3151,8752,2421,2421
3152,8755,2394,2394
3153,8758,2367,2367
3154,8761,2342,2342
3155,8763,2317,2317
3156,8766,2294,2294
3157,8769,2272,2272
3158,8772,2251,2251
3159,8775,2231,2231
3160,8777,2212,2212
3161,8780,2195,2195
3162,8783,2179,2179
3163,8786,2165,2165
3164,8788,2151,2151
3165,8791,2139,2139
3166,8794,2128,2128
3167,8797,2118,2118
3168,8800,2109,2109
3169,8802,2101,2101
3170,8805,2094,2094
3171,8808,2087,2087
3172,8811,2082,2082
3173,8813,2077,2077
3174,8816,2073,2073
3175,8819,2069,2069
3176,8822,2066,2066
3177,8825,2063,2063
3178,8827,2060,2060
3179,8830,2058,2058
3180,8833,2057,2057
3181,8836,2055,2055
3182,8838,2048,2048
3183,8841,2047,2047
3184,8844,2047,2047
3185,8847,2046,2046
3186,8850,2045,2045
3187,8852,2045,2045
3188,8855,2043,2043
3189,8858,2042,2042
3190,8861,2040,2040
3191,8863,2038,2038
3192,8866,2035,2035
3193,8869,2032,2032
3194,8872,2028,2028
3195,8875,2023,2023
3196,8877,2018,2018
3197,8880,2012,2012
3198,8883,2006,2006
3199,8886,1999,1999
3200,8888,1991,1991
3201,8891,1983,1983
3202,8894,1975,1975
3203,8897,1967,1967
3204,8900,1959,1959
3205,8902,1952,1952
3206,8905,1945,1945
3207,8908,1939,1939
3208,8911,1934,1934
3209,8913,1931,1931
3210,8916,1929,1929
3211,8919,1928,1928
3212,8922,1929,1929
3213,8925,1931,1931
3214,8927,1934,1934
3215,8930,1939,1939
3216,8933,1945,1945
3217,8936,1952,1952
3218,8938,1959,1959
3219,8941,1967,1967
3220,8944,1975,1975
3221,8947,1983,1983
3222,8950,1991,1991
3223,8952,1999,1999
3224,8955,2006,2006
3225,8958,2012,2012
3226,8961,2018,2018
3227,8963,2023,2023
3228,8966,2028,2028
3229,8969,2032,2032
3230,8972,2035,2035
3231,8975,2038,2038
3232,8977,2040,2040
3233,8980,2042,2042
3234,8983,2043,2043
3235,8986,2045,2045
3236,8988,2045,2045
3237,8991,2046,2046
3238,8994,2047,2047
3239,8997,2048,2048
3240,9000,2048,2048
3241,9002,2048,2048
3242,9005,2048,2048
3243,9008,2048,2048
3244,9011,2048,2048
3245,9013,2048,2048
3246,9016,2048,2048
3247,9019,2048,2048
3248,9022,2048,2048
3249,9025,2048,2048
3250,9027,2048,2048
3251,9030,2048,2048
3252,9033,2048,2048
3253,9036,2048,2048
3254,9038,2048,2048
3255,9041,2048,2048
3256,9044,2048,2048
3257,9047,2048,2048
3258,9050,2048,2048
3259,9052,2048,2048
3260,9055,2048,2048
3261,9058,2048,2048
3262,9061,2048,2048
3263,9063,2048,2048
3264,9066,2048,2048
3265,9069,2048,2048
3266,9072,2048,2048
3267,9075,2048,2048
3268,9077,2048,2048
3269,9080,2048,2048
3270,9083,2048,2048
3271,9086,2048,2048
3272,9088,2048,2048
3273,9091,2048,2048
3274,9094,2048,2048
3275,9097,2048,2048
3276,9100,2048,2048
3277,9102,2048,2048
3278,9105,2048,2048
3279,9108,2048,2048
3280,9111,2048,2048
3281,9113,2048,2048
3282,9116,2048,2048
3283,9119,2048,2048
3284,9122,2048,2048
3285,9125,2048,2048
3286,9127,2048,2048
3287,9130,2048,2048
3288,9133,2048,2048
3289,9136,2048,2048
3290,9138,2048,2048
3291,9141,2048,2048
3292,9144,2048,2048
3293,9147,2048,2048
3294,9150,2048,2048
3295,9152,2048,2048
3296,9155,2048,2048
3297,9158,2048,2048
3298,9161,2048,2048
3299,9163,2048,2048
3300,9166,2048,2048
3301,9169,2048,2048
3302,9172,2048,2048
3303,9175,2048,2048
3304,9177,2048,2048
3305,9180,2048,2048
3306,9183,2048,2048
3307,9186,2048,2048
3308,9188,2048,2048
3309,9191,2048,2048
3310,9194,2048,2048
3311,9197,2048,2048
3312,9200,2048,2048
3313,9202,2048,2048
3314,9205,2048,2048
3315,9208,2048,2048
3316,9211,2048,2048
3317,9213,2048,2048
3318,9216,2048,2048
3319,9219,2048,2048
3320,9222,2048,2048
3321,9225,2048,2048
3322,9227,2048,2048
3323,9230,2048,2048
3324,9233,2048,2048
3325,9236,2048,2048
3326,9238,2048,2048
3327,9241,2048,2048
3328,9244,2048,2048
3329,9247,2048,2048
3330,9250,2048,2048
3331,9252,2048,2048
3332,9255,2048,2048
3333,9258,2048,2048
3334,9261,2048,2048
3335,9263,2048,2048
3336,9266,2048,2048
3337,9269,2048,2048
3338,9272,2048,2048
3339,9275,2048,2048
3340,9277,2048,2048
3341,9280,2048,2048
3342,9283,2048,2048
3343,9286,2048,2048
3344,9288,2048,2048
3345,9291,2048,2048
3346,9294,2048,2048
3347,9297,2048,2048
3348,9300,2048,2048
3349,9302,2048,2048
3350,9305,2048,2048
3351,9308,2048,2048
3352,9311,2048,2048
3353,9313,2048,2048
3354,9316,2048,2048
3355,9319,2048,2048
3356,9322,2048,2048
3357,9325,2048,2048
3358,9327,2048,2048
3359,9330,2048,2048
3360,9333,2048,2048
3361,9336,2048,2048
3362,9338,2048,2048
3363,9341,2048,2048
3364,9344,2048,2048
3365,9347,2048,2048
3366,9350,2048,2048
3367,9352,2048,2048
3368,9355,2048,2048
3369,9358,2048,2048
3370,9361,2048,2048
3371,9363,2048,2048
3372,9366,2048,2048
3373,9369,2048,2048
3374,9372,2048,2048
3375,9375,2048,2048
3376,9377,2048,2048
3377,9380,2048,2048
3378,9383,2048,2048
3379,9386,2048,2048
3380,9388,2048,2048
3381,9391,2048,2048
3382,9394,2048,2048
3383,9397,2048,2048
3384,9400,2048,2048
3385,9402,2048,2048
3386,9405,2048,2048
3387,9408,2048,2048
3388,9411,2048,2048
3389,9413,2048,2048
3390,9416,2048,2048
3391,9419,2048,2048
3392,9422,2048,2048
3393,9425,2048,2048
3394,9427,2048,2048
3395,9430,2048,2048
3396,9433,2048,2048
3397,9436,2048,2048
3398,9438,2048,2048
3399,9441,2048,2048
3400,9444,2048,2048
3401,9447,2048,2048
3402,9450,2048,2048
3403,9452,2048,2048
3404,9455,2048,2048
3405,9458,2048,2048
3406,9461,2048,2048
3407,9463,2048,2048
3408,9466,2048,2048
3409,9469,2048,2048
3410,9472,2048,2048
3411,9475,2048,2048
3412,9477,2048,2048
3413,9480,2048,2048
3414,9483,2048,2048
3415,9486,2048,2048
3416,9488,2048,2048
3417,9491,2048,2048
3418,9494,2048,2048
3419,9497,2048,2048
3420,9500,2048,2048
3421,9502,2048,2048
3422,9505,2048,2048
3423,9508,2048,2048
3424,9511,2048,2048
3425,9513,2048,2048
3426,9516,2048,2048
3427,9519,2048,2048
3428,9522,2048,2048
3429,9525,2048,2048
3430,9527,2048,2048
3431,9530,2048,2048
3432,9533,2048,2048
3433,9536,2048,2048
3434,9538,2048,2048
3435,9541,2048,2048
3436,9544,2048,2048
3437,9547,2048,2048
3438,9550,2048,2048
3439,9552,2048,2048
3440,9555,2048,2048
3441,9558,2048,2048
3442,9561,2048,2048
3443,9563,2048,2048
3444,9566,2048,2048
3445,9569,2048,2048
3446,9572,2048,2048
3447,9575,2048,2048
3448,9577,2048,2048
3449,9580,2048,2048
3450,9583,2048,2048
3451,9586,2048,2048
3452,9588,2048,2048
3453,9591,2048,2048
3454,9594,2048,2048
3455,9597,2048,2048
3456,9600,2050,2050
3457,9602,2051,2051
3458,9605,2052,2052
3459,9608,2054,2054
3460,9611,2057,2057
3461,9613,2060,2060
3462,9616,2064,2064
3463,9619,2069,2069
3464,9622,2074,2074
3465,9625,2080,2080
3466,9627,2086,2086
3467,9630,2091,2091
3468,9633,2096,2096
3469,9636,2100,2100
3470,9638,2102,2102
3471,9641,2103,2103
3472,9644,2102,2102
3473,9647,2100,2100
3474,9650,2096,2096
3475,9652,2091,2091
3476,9655,2086,2086
3477,9658,2080,2080
3478,9661,2074,2074
3479,9663,2069,2069
3480,9666,2064,2064
3481,9669,2060,2060
3482,9672,2057,2057
3483,9675,2054,2054
3484,9677,2052,2052
3485,9680,2051,2051
3486,9683,2050,2050
3487,9686,2049,2049
3488,9688,2049,2049
3489,9691,2048,2048
3490,9694,2048,2048
3491,9697,2048,2048
3492,9700,2048,2048
3493,9702,2048,2048
3494,9705,2048,2048
3495,9708,2048,2048
3496,9711,2048,2048
3497,9713,2048,2048
3498,9716,2048,2048
3499,9719,2048,2048
3500,9722,2048,2048
3501,9725,2048,2048
3502,9727,2048,2048
3503,9730,2048,2048
3504,9733,2048,2048
3505,9736,2048,2048
3506,9738,2048,2048
3507,9741,2051,2051
3508,9744,2052,2052
3509,9747,2055,2055
3510,9750,2058,2058
3511,9752,2063,2063
3512,9755,2069,2069
3513,9758,2078,2078
3514,9761,2089,2089
3515,9763,2103,2103
3516,9766,2120,2120
3517,9769,2141,2141
3518,9772,2165,2165
3519,9775,2192,2192
3520,9777,2221,2221
3521,9780,2252,2252
3522,9783,2284,2284
3523,9786,2314,2314
3524,9788,2342,2342
3525,9791,2365,2365
3526,9794,2383,2383
3527,9797,2394,2394
3528,9800,2398,2398
3529,9802,2394,2394
3530,9805,2383,2383
3531,9808,2365,2365
3532,9811,2342,2342
3533,9813,2314,2314
3534,9816,2284,2284
3535,9819,2252,2252
3536,9822,2221,2221
3537,9825,2192,2192
3538,9827,2165,2165
3539,9830,2141,2141
3540,9833,2120,2120
3541,9836,2103,2103
3542,9838,2089,2089
3543,9841,2078,2078
3544,9844,2069,2069
3545,9847,2063,2063
3546,9850,2058,2058
3547,9852,2055,2055
3548,9855,2052,2052
3549,9858,2048,2048
3550,9861,2048,2048
3551,9863,2048,2048
3552,9866,2048,2048
3553,9869,2048,2048
3554,9872,2048,2048
3555,9875,2048,2048
3556,9877,2048,2048
3557,9880,2048,2048
3558,9883,2048,2048
3559,9886,2048,2048
3560,9888,2048,2048
3561,9891,2048,2048
3562,9894,2048,2048
3563,9897,2048,2048
3564,9900,2048,2048
3565,9902,2048,2048
3566,9905,2048,2048
3567,9908,2048,2048
3568,9911,2048,2048
3569,9913,2048,2048
3570,9916,2048,2048
3571,9919,2048,2048
3572,9922,2048,2048
3573,9925,2048,2048
3574,9927,2048,2048
3575,9930,2048,2048
3576,9933,2048,2048
3577,9936,2048,2048
3578,9938,2048,2048
3579,9941,2049,2049
3580,9944,2049,2049
3581,9947,2049,2049
3582,9950,2050,2050
3583,9952,2051,2051
3584,9955,2051,2051
3585,9958,2053,2053
3586,9961,2054,2054
3587,9963,2056,2056
3588,9966,2058,2058
3589,9969,2060,2060
3590,9972,2063,2063
3591,9975,2067,2067
3592,9977,2070,2070
3593,9980,2075,2075
3594,9983,2080,2080
3595,9986,2085,2085
3596,9988,2091,2091
3597,9991,2097,2097
3598,9994,2103,2103
3599,9997,2109,2109
3600,10000,2115,2115
3601,10002,2120,2120
3602,10005,2125,2125
3603,10008,2130,2130
3604,10011,2133,2133
3605,10013,2136,2136
3606,10016,2137,2137
3607,10019,2138,2138
3608,10022,2137,2137
3609,10025,2136,2136
3610,10027,2133,2133
3611,10030,2130,2130
3612,10033,2125,2125
3613,10036,2120,2120
3614,10038,2115,2115
3615,10041,2109,2109
3616,10044,2103,2103
3617,10047,2097,2097
3618,10050,2091,2091
3619,10052,2085,2085
3620,10055,2080,2080
3621,10058,2075,2075
3622,10061,2070,2070
3623,10063,2067,2067
3624,10066,2063,2063
3625,10069,2060,2060
3626,10072,2058,2058
3627,10075,2056,2056
3628,10077,2054,2054
3629,10080,2053,2053
3630,10083,2051,2051
3631,10086,2051,2051
3632,10088,2050,2050
3633,10091,2049,2049
3634,10094,2049,2049
3635,10097,2048,2048
3636,10100,2048,2048
3637,10102,2048,2048
3638,10105,2048,2048
3639,10108,2048,2048
3640,10111,2048,2048
3641,10113,2048,2048
3642,10116,2048,2048
3643,10119,2048,2048
3644,10122,2048,2048
3645,10125,2048,2048
3646,10127,2048,2048
3647,10130,2048,2048
3648,10133,2048,2048
3649,10136,2048,2048
3650,10138,2048,2048
3651,10141,2048,2048
3652,10144,2048,2048
3653,10147,2048,2048
3654,10150,2048,2048
3655,10152,2048,2048
3656,10155,2048,2048
3657,10158,2048,2048
3658,10161,2054,2054
3659,10163,2055,2055
3660,10166,2057,2057
3661,10169,2058,2058
3662,10172,2060,2060
3663,10175,2063,2063
3664,10177,2066,2066
3665,10180,2069,2069
3666,10183,2073,2073
3667,10186,2077,2077
3668,10188,2082,2082
3669,10191,2087,2087
3670,10194,2094,2094
3671,10197,2101,2101
3672,10200,2109,2109
3673,10202,2118,2118
3674,10205,2128,2128
3675,10208,2139,2139
3676,10211,2151,2151
3677,10213,2165,2165
3678,10216,2179,2179
3679,10219,2195,2195
3680,10222,2212,2212
3681,10225,2231,2231
3682,10227,2251,2251
3683,10230,2272,2272
3684,10233,2294,2294
3685,10236,2317,2317
3686,10238,2342,2342
3687,10241,2367,2367
3688,10244,2394,2394
3689,10247,2421,2421
3690,10250,2449,2449
3691,10252,2477,2477
3692,10255,2505,2505
3693,10258,2533,2533
3694,10261,2561,2561
3695,10263,2589,2589
3696,10266,2616,2616
3697,10269,2641,2641
3698,10272,2666,2666
3699,10275,2689,2689
3700,10277,2711,2711
3701,10280,2730,2730
3702,10283,2748,2748
3703,10286,2763,2763
3704,10288,2775,2775
3705,10291,2785,2785
3706,10294,2792,2792
3707,10297,2797,2797
3708,10300,2798,2798
3709,10302,2797,2797
3710,10305,2792,2792
3711,10308,2785,2785
3712,10311,2775,2775
3713,10313,2763,2763
3714,10316,2748,2748
3715,10319,2730,2730
3716,10322,2711,2711
3717,10325,2689,2689
3718,10327,2666,2666
3719,10330,2641,2641
3720,10333,2616,2616
3721,10336,2589,2589
3722,10338,2561,2561
3723,10341,2533,2533
3724,10344,2505,2505
3725,10347,2477,2477
3726,10350,2449,2449
3727,10352,2421,2421
3728,10355,2394,2394
3729,10358,2367,2367
3730,10361,2342,2342
3731,10363,2317,2317
3732,10366,2294,2294
3733,10369,2272,2272
3734,10372,2251,2251
3735,10375,2231,2231
3736,10377,2212,2212
3737,10380,2195,2195
3738,10383,2179,2179
3739,10386,2165,2165
3740,10388,2151,2151
3741,10391,2139,2139
3742,10394,2128,2128
3743,10397,2118,2118
3744,10400,2109,2109
3745,10402,2101,2101
3746,10405,2094,2094
3747,10408,2087,2087
3748,10411,2082,2082
3749,10413,2077,2077
3750,10416,2073,2073
3751,10419,2069,2069
3752,10422,2066,2066
3753,10425,2063,2063
3754,10427,2060,2060
3755,10430,2058,2058
3756,10433,2057,2057
3757,10436,2055,2055
3758,10438,2048,2048
3759,10441,2047,2047
3760,10444,2047,2047
3761,10447,2046,2046
3762,10450,2045,2045
3763,10452,2045,2045
3764,10455,2043,2043
3765,10458,2042,2042
3766,10461,2040,2040
3767,10463,2038,2038
3768,10466,2035,2035
3769,10469,2032,2032
3770,10472,2028,2028
3771,10475,2023,2023
3772,10477,2018,2018
3773,10480,2012,2012
3774,10483,2006,2006
3775,10486,1999,1999
3776,10488,1991,1991
3777,10491,1983,1983
3778,10494,1975,1975
3779,10497,1967,1967
3780,10500,1959,1959
3781,10502,1952,1952
3782,10505,1945,1945
3783,10508,1939,1939
3784,10511,1934,1934
3785,10513,1931,1931
3786,10516,1929,1929
3787,10519,1928,1928
3788,10522,1929,1929
3789,10525,1931,1931
3790,10527,1934,1934
3791,10530,1939,1939
3792,10533,1945,1945
3793,10536,1952,1952
3794,10538,1959,1959
3795,10541,1967,1967
3796,10544,1975,1975
3797,10547,1983,1983
3798,10550,1991,1991
3799,10552,1999,1999
3800,10555,2006,2006
3801,10558,2012,2012
3802,10561,2018,2018
3803,10563,2023,2023
3804,10566,2028,2028
3805,10569,2032,2032
3806,10572,2035,2035
3807,10575,2038,2038
3808,10577,2040,2040
3809,10580,2042,2042
3810,10583,2043,2043
3811,10586,2045,2045
3812,10588,2045,2045
3813,10591,2046,2046
3814,10594,2047,2047
3815,10597,2048,2048
3816,10600,2048,2048
3817,10602,2048,2048
3818,10605,2048,2048
3819,10608,2048,2048
3820,10611,2048,2048
3821,10613,2048,2048
3822,10616,2048,2048
3823,10619,2048,2048
3824,10622,2048,2048
3825,10625,2048,2048
3826,10627,2048,2048
3827,10630,2048,2048
3828,10633,2048,2048
3829,10636,2048,2048
3830,10638,2048,2048
3831,10641,2048,2048
3832,10644,2048,2048
3833,10647,2048,2048
3834,10650,2048,2048
3835,10652,2048,2048
3836,10655,2048,2048
3837,10658,2048,2048
3838,10661,2048,2048
3839,10663,2048,2048
3840,10666,2048,2048
3841,10669,2048,2048
3842,10672,2048,2048
3843,10675,2048,2048
3844,10677,2048,2048
3845,10680,2048,2048
3846,10683,2048,2048
3847,10686,2048,2048
3848,10688,2048,2048
3849,10691,2048,2048
3850,10694,2048,2048
3851,10697,2048,2048
3852,10700,2048,2048
3853,10702,2048,2048
3854,10705,2048,2048
3855,10708,2048,2048
3856,10711,2048,2048
3857,10713,2048,2048
3858,10716,2048,2048
3859,10719,2048,2048
3860,10722,2048,2048
3861,10725,2048,2048
3862,10727,2048,2048
3863,10730,2048,2048
3864,10733,2048,2048
3865,10736,2048,2048
3866,10738,2048,2048
3867,10741,2048,2048
3868,10744,2048,2048
3869,10747,2048,2048
3870,10750,2048,2048
3871,10752,2048,2048
3872,10755,2048,2048
3873,10758,2048,2048
3874,10761,2048,2048
3875,10763,2048,2048
3876,10766,2048,2048
3877,10769,2048,2048
3878,10772,2048,2048
3879,10775,2048,2048
3880,10777,2048,2048
3881,10780,2048,2048
3882,10783,2048,2048
3883,10786,2048,2048
3884,10788,2048,2048
3885,10791,2048,2048
3886,10794,2048,2048
3887,10797,2048,2048
3888,10800,2048,2048
3889,10802,2048,2048
3890,10805,2048,2048
3891,10808,2048,2048
3892,10811,2048,2048
3893,10813,2048,2048
3894,10816,2048,2048
3895,10819,2048,2048
3896,10822,2048,2048
3897,10825,2048,2048
3898,10827,2048,2048
3899,10830,2048,2048
3900,10833,2048,2048
3901,10836,2048,2048
3902,10838,2048,2048
3903,10841,2048,2048
3904,10844,2048,2048
3905,10847,2048,2048
3906,10850,2048,2048
3907,10852,2048,2048
3908,10855,2048,2048
3909,10858,2048,2048
3910,10861,2048,2048
3911,10863,2048,2048
3912,10866,2048,2048
3913,10869,2048,2048
3914,10872,2048,2048
3915,10875,2048,2048
3916,10877,2048,2048
3917,10880,2048,2048
3918,10883,2048,2048
3919,10886,2048,2048
3920,10888,2048,2048
3921,10891,2048,2048
3922,10894,2048,2048
3923,10897,2048,2048
3924,10900,2048,2048
3925,10902,2048,2048
3926,10905,2048,2048
3927,10908,2048,2048
3928,10911,2048,2048
3929,10913,2048,2048
3930,10916,2048,2048
3931,10919,2048,2048
3932,10922,2048,2048
3933,10925,2048,2048
3934,10927,2048,2048
3935,10930,2048,2048
3936,10933,2048,2048
3937,10936,2048,2048
3938,10938,2048,2048
3939,10941,2048,2048
3940,10944,2048,2048
3941,10947,2048,2048
3942,10950,2048,2048
3943,10952,2048,2048
3944,10955,2048,2048
3945,10958,2048,2048
3946,10961,2048,2048
3947,10963,2048,2048
3948,10966,2048,2048
3949,10969,2048,2048
3950,10972,2048,2048
3951,10975,2048,2048
3952,10977,2048,2048
3953,10980,2048,2048
3954,10983,2048,2048
3955,10986,2048,2048
3956,10988,2048,2048
3957,10991,2048,2048
3958,10994,2048,2048
3959,10997,2048,2048
3960,11000,2048,2048
3961,11002,2048,2048
3962,11005,2048,2048
3963,11008,2048,2048
3964,11011,2048,2048
3965,11013,2048,2048
3966,11016,2048,2048
3967,11019,2048,2048
3968,11022,2048,2048
3969,11025,2048,2048
3970,11027,2048,2048
3971,11030,2048,2048
3972,11033,2048,2048
3973,11036,2048,2048
3974,11038,2048,2048
3975,11041,2048,2048
3976,11044,2048,2048
3977,11047,2048,2048
3978,11050,2048,2048
3979,11052,2048,2048
3980,11055,2048,2048
3981,11058,2048,2048
3982,11061,2048,2048
3983,11063,2048,2048
3984,11066,2048,2048
3985,11069,2048,2048
3986,11072,2048,2048
3987,11075,2048,2048
3988,11077,2048,2048
3989,11080,2048,2048
3990,11083,2048,2048
3991,11086,2048,2048
3992,11088,2048,2048
3993,11091,2048,2048
3994,11094,2048,2048
3995,11097,2048,2048
3996,11100,2048,2048
3997,11102,2048,2048
3998,11105,2048,2048
3999,11108,2048,2048
4000,11111,2048,2048
4001,11113,2048,2048
4002,11116,2048,2048
4003,11119,2048,2048
4004,11122,2048,2048
4005,11125,2048,2048
4006,11127,2048,2048
4007,11130,2048,2048
4008,11133,2048,2048
4009,11136,2048,2048
4010,11138,2048,2048
4011,11141,2048,2048
4012,11144,2048,2048
4013,11147,2048,2048
4014,11150,2048,2048
4015,11152,2048,2048
4016,11155,2048,2048
4017,11158,2048,2048
4018,11161,2048,2048
4019,11163,2048,2048
4020,11166,2048,2048
4021,11169,2048,2048
4022,11172,2048,2048
4023,11175,2048,2048
4024,11177,2048,2048
4025,11180,2048,2048
4026,11183,2048,2048
4027,11186,2048,2048
4028,11188,2048,2048
4029,11191,2048,2048
4030,11194,2048,2048
4031,11197,2048,2048
4032,11200,2050,2050
4033,11202,2051,2051
4034,11205,2052,2052
4035,11208,2054,2054
4036,11211,2057,2057
4037,11213,2060,2060
4038,11216,2064,2064
4039,11219,2069,2069
4040,11222,2074,2074
4041,11225,2080,2080
4042,11227,2086,2086
4043,11230,2091,2091
4044,11233,2096,2096
4045,11236,2100,2100
4046,11238,2102,2102
4047,11241,2103,2103
4048,11244,2102,2102
4049,11247,2100,2100
4050,11250,2096,2096
4051,11252,2091,2091
4052,11255,2086,2086
4053,11258,2080,2080
4054,11261,2074,2074
4055,11263,2069,2069
4056,11266,2064,2064
4057,11269,2060,2060
4058,11272,2057,2057
4059,11275,2054,2054
4060,11277,2052,2052
4061,11280,2051,2051
4062,11283,2050,2050
4063,11286,2049,2049
4064,11288,2049,2049
4065,11291,2048,2048
4066,11294,2048,2048
4067,11297,2048,2048
4068,11300,2048,2048
4069,11302,2048,2048
4070,11305,2048,2048
4071,11308,2048,2048
4072,11311,2048,2048
4073,11313,2048,2048
4074,11316,2048,2048
4075,11319,2048,2048
4076,11322,2048,2048
4077,11325,2048,2048
4078,11327,2048,2048
4079,11330,2048,2048
4080,11333,2048,2048
4081,11336,2048,2048
4082,11338,2048,2048
4083,11341,2051,2051
4084,11344,2052,2052
4085,11347,2055,2055
4086,11350,2058,2058
4087,11352,2063,2063
4088,11355,2069,2069
4089,11358,2078,2078
4090,11361,2089,2089
4091,11363,2103,2103
4092,11366,2120,2120
4093,11369,2141,2141
4094,11372,2165,2165
4095,11375,2192,2192
4096,11377,2221,2221
4097,11380,2252,2252
4098,11383,2284,2284
4099,11386,2314,2314
4100,11388,2342,2342
4101,11391,2365,2365
4102,11394,2383,2383
4103,11397,2394,2394
4104,11400,2398,2398
4105,11402,2394,2394
4106,11405,2383,2383
4107,11408,2365,2365
4108,11411,2342,2342
4109,11413,2314,2314
4110,11416,2284,2284
4111,11419,2252,2252
4112,11422,2221,2221
4113,11425,2192,2192
4114,11427,2165,2165
4115,11430,2141,2141
4116,11433,2120,2120
4117,11436,2103,2103
4118,11438,2089,2089
4119,11441,2078,2078
4120,11444,2069,2069
4121,11447,2063,2063
4122,11450,2058,2058
4123,11452,2055,2055
4124,11455,2052,2052
4125,11458,2048,2048
4126,11461,2048,2048
4127,11463,2048,2048
4128,11466,2048,2048
4129,11469,2048,2048
4130,11472,2048,2048
4131,11475,2048,2048
4132,11477,2048,2048
4133,11480,2048,2048
4134,11483,2048,2048
4135,11486,2048,2048
4136,11488,2048,2048
4137,11491,2048,2048
4138,11494,2048,2048
4139,11497,2048,2048
4140,11500,2048,2048
4141,11502,2048,2048
4142,11505,2048,2048
4143,11508,2048,2048
4144,11511,2048,2048
4145,11513,2048,2048
4146,11516,2048,2048
4147,11519,2048,2048
4148,11522,2048,2048
4149,11525,2048,2048
4150,11527,2048,2048
4151,11530,2048,2048
4152,11533,2048,2048
4153,11536,2048,2048
4154,11538,2048,2048
4155,11541,2049,2049
4156,11544,2049,2049
4157,11547,2049,2049
4158,11550,2050,2050
4159,11552,2051,2051
4160,11555,2051,2051
4161,11558,2053,2053
4162,11561,2054,2054
4163,11563,2056,2056
4164,11566,2058,2058
4165,11569,2060,2060
4166,11572,2063,2063
4167,11575,2067,2067
4168,11577,2070,2070
4169,11580,2075,2075
4170,11583,2080,2080
4171,11586,2085,2085
4172,11588,2091,2091
4173,11591,2097,2097
4174,11594,2103,2103
4175,11597,2109,2109
4176,11600,2115,2115
4177,11602,2120,2120
4178,11605,2125,2125
4179,11608,2130,2130
4180,11611,2133,2133
4181,11613,2136,2136
4182,11616,2137,2137
4183,11619,2138,2138
4184,11622,2137,2137
4185,11625,2136,2136
4186,11627,2133,2133
4187,11630,2130,2130
4188,11633,2125,2125
4189,11636,2120,2120
4190,11638,2115,2115
4191,11641,2109,2109
4192,11644,2103,2103
4193,11647,2097,2097
4194,11650,2091,2091
4195,11652,2085,2085
4196,11655,2080,2080
4197,11658,2075,2075
4198,11661,2070,2070
4199,11663,2067,2067
4200,11666,2063,2063
4201,11669,2060,2060
4202,11672,2058,2058
4203,11675,2056,2056
4204,11677,2054,2054
4205,11680,2053,2053
4206,11683,2051,2051
4207,11686,2051,2051
4208,11688,2050,2050
4209,11691,2049,2049
4210,11694,2049,2049
4211,11697,2048,2048
4212,11700,2048,2048
4213,11702,2048,2048
4214,11705,2048,2048
4215,11708,2048,2048
4216,11711,2048,2048
4217,11713,2048,2048
4218,11716,2048,2048
4219,11719,2048,2048
4220,11722,2048,2048
4221,11725,2048,2048
4222,11727,2048,2048
4223,11730,2048,2048
4224,11733,2048,2048
4225,11736,2048,2048
4226,11738,2048,2048
4227,11741,2048,2048
4228,11744,2048,2048
4229,11747,2048,2048
4230,11750,2048,2048
4231,11752,2048,2048
4232,11755,2048,2048
4233,11758,2048,2048
4234,11761,2054,2054
4235,11763,2055,2055
4236,11766,2057,2057
4237,11769,2058,2058
4238,11772,2060,2060
4239,11775,2063,2063
4240,11777,2066,2066
4241,11780,2069,2069
4242,11783,2073,2073
4243,11786,2077,2077
4244,11788,2082,2082
4245,11791,2087,2087
4246,11794,2094,2094
4247,11797,2101,2101
4248,11800,2109,2109
4249,11802,2118,2118
4250,11805,2128,2128
4251,11808,2139,2139
4252,11811,2151,2151
4253,11813,2165,2165
4254,11816,2179,2179
4255,11819,2195,2195
4256,11822,2212,2212
4257,11825,2231,2231
4258,11827,2251,2251
4259,11830,2272,2272
4260,11833,2294,2294
4261,11836,2317,2317
4262,11838,2342,2342
4263,11841,2367,2367
4264,11844,2394,2394
4265,11847,2421,2421
4266,11850,2449,2449
4267,11852,2477,2477
4268,11855,2505,2505
4269,11858,2533,2533
4270,11861,2561,2561
4271,11863,2589,2589
4272,11866,2616,2616
4273,11869,2641,2641
4274,11872,2666,2666
4275,11875,2689,2689
4276,11877,2711,2711
4277,11880,2730,2730
4278,11883,2748,2748
4279,11886,2763,2763
4280,11888,2775,2775
4281,11891,2785,2785
4282,11894,2792,2792
4283,11897,2797,2797
4284,11900,2798,2798
4285,11902,2797,2797
4286,11905,2792,2792
4287,11908,2785,2785
4288,11911,2775,2775
4289,11913,2763,2763
4290,11916,2748,2748
4291,11919,2730,2730
4292,11922,2711,2711
4293,11925,2689,2689
4294,11927,2666,2666
4295,11930,2641,2641
4296,11933,2616,2616
4297,11936,2589,2589
4298,11938,2561,2561
4299,11941,2533,2533
4300,11944,2505,2505
4301,11947,2477,2477
4302,11950,2449,2449
4303,11952,2421,2421
4304,11955,2394,2394
4305,11958,2367,2367
4306,11961,2342,2342
4307,11963,2317,2317
4308,11966,2294,2294
4309,11969,2272,2272
4310,11972,2251,2251
4311,11975,2231,2231
4312,11977,2212,2212
4313,11980,2195,2195
4314,11983,2179,2179
4315,11986,2165,2165
4316,11988,2151,2151
4317,11991,2139,2139
4318,11994,2128,2128
4319,11997,2118,2118
4320,12000,2109,2109
4321,12002,2101,2101
4322,12005,2094,2094
4323,12008,2087,2087
4324,12011,2082,2082
4325,12013,2077,2077
4326,12016,2073,2073
4327,12019,2069,2069
4328,12022,2066,2066
4329,12025,2063,2063
4330,12027,2060,2060
4331,12030,2058,2058
4332,12033,2057,2057
4333,12036,2055,2055
4334,12038,2048,2048
4335,12041,2047,2047
4336,12044,2047,2047
4337,12047,2046,2046
4338,12050,2045,2045
4339,12052,2045,2045
4340,12055,2043,2043
4341,12058,2042,2042
4342,12061,2040,2040
4343,12063,2038,2038
4344,12066,2035,2035
4345,12069,2032,2032
4346,12072,2028,2028
4347,12075,2023,2023
4348,12077,2018,2018
4349,12080,2012,2012
4350,12083,2006,2006
4351,12086,1999,1999
4352,12088,1991,1991
4353,12091,1983,1983
4354,12094,1975,1975
4355,12097,1967,1967
4356,12100,1959,1959
4357,12102,1952,1952
4358,12105,1945,1945
4359,12108,1939,1939
4360,12111,1934,1934
4361,12113,1931,1931
4362,12116,1929,1929
4363,12119,1928,1928
4364,12122,1929,1929
4365,12125,1931,1931
4366,12127,1934,1934
4367,12130,1939,1939
4368,12133,1945,1945
4369,12136,1952,1952
4370,12138,1959,1959
4371,12141,1967,1967
4372,12144,1975,1975
4373,12147,1983,1983
4374,12150,1991,1991
4375,12152,1999,1999
4376,12155,2006,2006
4377,12158,2012,2012
4378,12161,2018,2018
4379,12163,2023,2023
4380,12166,2028,2028
4381,12169,2032,2032
4382,12172,2035,2035
4383,12175,2038,2038
4384,12177,2040,2040
4385,12180,2042,2042
4386,12183,2043,2043
4387,12186,2045,2045
4388,12188,2045,2045
4389,12191,2046,2046
4390,12194,2047,2047
4391,12197,2048,2048
4392,12200,2048,2048
4393,12202,2048,2048
4394,12205,2048,2048
4395,12208,2048,2048
4396,12211,2048,2048
4397,12213,2048,2048
4398,12216,2048,2048
4399,12219,2048,2048
4400,12222,2048,2048
4401,12225,2048,2048
4402,12227,2048,2048
4403,12230,2048,2048
4404,12233,2048,2048
4405,12236,2048,2048
4406,12238,2048,2048
4407,12241,2048,2048
4408,12244,2048,2048
4409,12247,2048,2048
4410,12250,2048,2048
4411,12252,2048,2048
4412,12255,2048,2048
4413,12258,2048,2048
4414,12261,2048,2048
4415,12263,2048,2048
4416,12266,2048,2048
4417,12269,2048,2048
4418,12272,2048,2048
4419,12275,2048,2048
4420,12277,2048,2048
4421,12280,2048,2048
4422,12283,2048,2048
4423,12286,2048,2048
4424,12288,2048,2048
4425,12291,2048,2048
4426,12294,2048,2048
4427,12297,2048,2048
4428,12300,2048,2048
4429,12302,2048,2048
4430,12305,2048,2048
4431,12308,2048,2048
4432,12311,2048,2048
4433,12313,2048,2048
4434,12316,2048,2048
4435,12319,2048,2048
4436,12322,2048,2048
4437,12325,2048,2048
4438,12327,2048,2048
4439,12330,2048,2048
4440,12333,2048,2048
4441,12336,2048,2048
4442,12338,2048,2048
4443,12341,2048,2048
4444,12344,2048,2048
4445,12347,2048,2048
4446,12350,2048,2048
4447,12352,2048,2048
4448,12355,2048,2048
4449,12358,2048,2048
4450,12361,2048,2048
4451,12363,2048,2048
4452,12366,2048,2048
4453,12369,2048,2048
4454,12372,2048,2048
4455,12375,2048,2048
4456,12377,2048,2048
4457,12380,2048,2048
4458,12383,2048,2048
4459,12386,2048,2048
4460,12388,2048,2048
4461,12391,2048,2048
4462,12394,2048,2048
4463,12397,2048,2048
4464,12400,2048,2048
4465,12402,2048,2048
4466,12405,2048,2048
4467,12408,2048,2048
4468,12411,2048,2048
4469,12413,2048,2048
4470,12416,2048,2048
4471,12419,2048,2048
4472,12422,2048,2048
4473,12425,2048,2048
4474,12427,2048,2048
4475,12430,2048,2048
4476,12433,2048,2048
4477,12436,2048,2048
4478,12438,2048,2048
4479,12441,2048,2048
4480,12444,2048,2048
4481,12447,2048,2048
4482,12450,2048,2048
4483,12452,2048,2048
4484,12455,2048,2048
4485,12458,2048,2048
4486,12461,2048,2048
4487,12463,2048,2048
4488,12466,2048,2048
4489,12469,2048,2048
4490,12472,2048,2048
4491,12475,2048,2048
4492,12477,2048,2048
4493,12480,2048,2048
4494,12483,2048,2048
4495,12486,2048,2048
4496,12488,2048,2048
4497,12491,2048,2048
4498,12494,2048,2048
4499,12497,2048,2048
4500,12500,2048,2048
4501,12502,2048,2048
4502,12505,2048,2048
4503,12508,2048,2048
4504,12511,2048,2048
4505,12513,2048,2048
4506,12516,2048,2048
4507,12519,2048,2048
4508,12522,2048,2048
4509,12525,2048,2048
4510,12527,2048,2048
4511,12530,2048,2048
4512,12533,2048,2048
4513,12536,2048,2048
4514,12538,2048,2048
4515,12541,2048,2048
4516,12544,2048,2048
4517,12547,2048,2048
4518,12550,2048,2048
4519,12552,2048,2048
4520,12555,2048,2048
4521,12558,2048,2048
4522,12561,2048,2048
4523,12563,2048,2048
4524,12566,2048,2048
4525,12569,2048,2048
4526,12572,2048,2048
4527,12575,2048,2048
4528,12577,2048,2048
4529,12580,2048,2048
4530,12583,2048,2048
4531,12586,2048,2048
4532,12588,2048,2048
4533,12591,2048,2048
4534,12594,2048,2048
4535,12597,2048,2048
4536,12600,2048,2048
4537,12602,2048,2048
4538,12605,2048,2048
4539,12608,2048,2048
4540,12611,2048,2048
4541,12613,2048,2048
4542,12616,2048,2048
4543,12619,2048,2048
4544,12622,2048,2048
4545,12625,2048,2048
4546,12627,2048,2048
4547,12630,2048,2048
4548,12633,2048,2048
4549,12636,2048,2048
4550,12638,2048,2048
4551,12641,2048,2048
4552,12644,2048,2048
4553,12647,2048,2048
4554,12650,2048,2048
4555,12652,2048,2048
4556,12655,2048,2048
4557,12658,2048,2048
4558,12661,2048,2048
4559,12663,2048,2048
4560,12666,2048,2048
4561,12669,2048,2048
4562,12672,2048,2048
4563,12675,2048,2048
4564,12677,2048,2048
4565,12680,2048,2048
4566,12683,2048,2048
4567,12686,2048,2048
4568,12688,2048,2048
4569,12691,2048,2048
4570,12694,2048,2048
4571,12697,2048,2048
4572,12700,2048,2048
4573,12702,2048,2048
4574,12705,2048,2048
4575,12708,2048,2048
4576,12711,2048,2048
4577,12713,2048,2048
4578,12716,2048,2048
4579,12719,2048,2048
4580,12722,2048,2048
4581,12725,2048,2048
4582,12727,2048,2048
4583,12730,2048,2048
4584,12733,2048,2048
4585,12736,2048,2048
4586,12738,2048,2048
4587,12741,2048,2048
4588,12744,2048,2048
4589,12747,2048,2048
4590,12750,2048,2048
4591,12752,2048,2048
4592,12755,2048,2048
4593,12758,2048,2048
4594,12761,2048,2048
4595,12763,2048,2048
4596,12766,2048,2048
4597,12769,2048,2048
4598,12772,2048,2048
4599,12775,2048,2048
4600,12777,2048,2048
4601,12780,2048,2048
4602,12783,2048,2048
4603,12786,2048,2048
4604,12788,2048,2048
4605,12791,2048,2048
4606,12794,2048,2048
4607,12797,2048,2048
4608,12800,2050,2050
4609,12802,2051,2051
4610,12805,2052,2052
4611,12808,2054,2054
4612,12811,2057,2057
4613,12813,2060,2060
4614,12816,2064,2064
4615,12819,2069,2069
4616,12822,2074,2074
4617,12825,2080,2080
4618,12827,2086,2086
4619,12830,2091,2091
4620,12833,2096,2096
4621,12836,2100,2100
4622,12838,2102,2102
4623,12841,2103,2103
4624,12844,2102,2102
4625,12847,2100,2100
4626,12850,2096,2096
4627,12852,2091,2091
4628,12855,2086,2086
4629,12858,2080,2080
4630,12861,2074,2074
4631,12863,2069,2069
4632,12866,2064,2064
4633,12869,2060,2060
4634,12872,2057,2057
4635,12875,2054,2054
4636,12877,2052,2052
4637,12880,2051,2051
4638,12883,2050,2050
4639,12886,2049,2049
4640,12888,2049,2049
4641,12891,2048,2048
4642,12894,2048,2048
4643,12897,2048,2048
4644,12900,2048,2048
4645,12902,2048,2048
4646,12905,2048,2048
4647,12908,2048,2048
4648,12911,2048,2048
4649,12913,2048,2048
4650,12916,2048,2048
4651,12919,2048,2048
4652,12922,2048,2048
4653,12925,2048,2048
4654,12927,2048,2048
4655,12930,2048,2048
4656,12933,2048,2048
4657,12936,2048,2048
4658,12938,2048,2048
4659,12941,2051,2051
4660,12944,2052,2052
4661,12947,2055,2055
4662,12950,2058,2058
4663,12952,2063,2063
4664,12955,2069,2069
4665,12958,2078,2078
4666,12961,2089,2089
4667,12963,2103,2103
4668,12966,2120,2120
4669,12969,2141,2141
4670,12972,2165,2165
4671,12975,2192,2192
4672,12977,2221,2221
4673,12980,2252,2252
4674,12983,2284,2284
4675,12986,2314,2314
4676,12988,2342,2342
4677,12991,2365,2365
4678,12994,2383,2383
4679,12997,2394,2394
4680,13000,2398,2398
4681,13002,2394,2394
4682,13005,2383,2383
4683,13008,2365,2365
4684,13011,2342,2342
4685,13013,2314,2314
4686,13016,2284,2284
4687,13019,2252,2252
4688,13022,2221,2221
4689,13025,2192,2192
4690,13027,2165,2165
4691,13030,2141,2141
4692,13033,2120,2120
4693,13036,2103,2103
4694,13038,2089,2089
4695,13041,2078,2078
4696,13044,2069,2069
4697,13047,2063,2063
4698,13050,2058,2058
4699,13052,2055,2055
4700,13055,2052,2052
4701,13058,2048,2048
4702,13061,2048,2048
4703,13063,2048,2048
4704,13066,2048,2048
4705,13069,2048,2048
4706,13072,2048,2048
4707,13075,2048,2048
4708,13077,2048,2048
4709,13080,2048,2048
4710,13083,2048,2048
4711,13086,2048,2048
4712,13088,2048,2048
4713,13091,2048,2048
4714,13094,2048,2048
4715,13097,2048,2048
4716,13100,2048,2048
4717,13102,2048,2048
4718,13105,2048,2048
4719,13108,2048,2048
4720,13111,2048,2048
4721,13113,2048,2048
4722,13116,2048,2048
4723,13119,2048,2048
4724,13122,2048,2048
4725,13125,2048,2048
4726,13127,2048,2048
4727,13130,2048,2048
4728,13133,2048,2048
4729,13136,2048,2048
4730,13138,2048,2048
4731,13141,2049,2049
4732,13144,2049,2049
4733,13147,2049,2049
4734,13150,2050,2050
4735,13152,2051,2051
4736,13155,2051,2051
4737,13158,2053,2053
4738,13161,2054,2054
4739,13163,2056,2056
4740,13166,2058,2058
4741,13169,2060,2060
4742,13172,2063,2063
4743,13175,2067,2067
4744,13177,2070,2070
4745,13180,2075,2075
4746,13183,2080,2080
4747,13186,2085,2085
4748,13188,2091,2091
4749,13191,2097,2097
4750,13194,2103,2103
4751,13197,2109,2109
4752,13200,2115,2115
4753,13202,2120,2120
4754,13205,2125,2125
4755,13208,2130,2130
4756,13211,2133,2133
4757,13213,2136,2136
4758,13216,2137,2137
4759,13219,2138,2138
4760,13222,2137,2137
4761,13225,2136,2136
4762,13227,2133,2133
4763,13230,2130,2130
4764,13233,2125,2125
4765,13236,2120,2120
4766,13238,2115,2115
4767,13241,2109,2109
4768,13244,2103,2103
4769,13247,2097,2097
4770,13250,2091,2091
4771,13252,2085,2085
4772,13255,2080,2080
4773,13258,2075,2075
4774,13261,2070,2070
4775,13263,2067,2067
4776,13266,2063,2063
4777,13269,2060,2060
4778,13272,2058,2058
4779,13275,2056,2056
4780,13277,2054,2054
4781,13280,2053,2053
4782,13283,2051,2051
4783,13286,2051,2051
4784,13288,2050,2050
4785,13291,2049,2049
4786,13294,2049,2049
4787,13297,2048,2048
4788,13300,2048,2048
4789,13302,2048,2048
4790,13305,2048,2048
4791,13308,2048,2048
4792,13311,2048,2048
4793,13313,2048,2048
4794,13316,2048,2048
4795,13319,2048,2048
4796,13322,2048,2048
4797,13325,2048,2048
4798,13327,2048,2048
4799,13330,2048,2048
4800,13333,2048,2048
4801,13336,2048,2048
4802,13338,2048,2048
4803,13341,2048,2048
4804,13344,2048,2048
4805,13347,2048,2048
4806,13350,2048,2048
4807,13352,2048,2048
4808,13355,2048,2048
4809,13358,2048,2048
4810,13361,2054,2054
4811,13363,2055,2055
4812,13366,2057,2057
4813,13369,2058,2058
4814,13372,2060,2060
4815,13375,2063,2063
4816,13377,2066,2066
4817,13380,2069,2069
4818,13383,2073,2073
4819,13386,2077,2077
4820,13388,2082,2082
4821,13391,2087,2087
4822,13394,2094,2094
4823,13397,2101,2101
4824,13400,2109,2109
4825,13402,2118,2118
4826,13405,2128,2128
4827,13408,2139,2139
4828,13411,2151,2151
4829,13413,2165,2165
4830,13416,2179,2179
4831,13419,2195,2195
4832,13422,2212,2212
4833,13425,2231,2231
4834,13427,2251,2251
4835,13430,2272,2272
4836,13433,2294,2294
4837,13436,2317,2317
4838,13438,2342,2342
4839,13441,2367,2367
4840,13444,2394,2394
4841,13447,2421,2421
4842,13450,2449,2449
4843,13452,2477,2477
4844,13455,2505,2505
4845,13458,2533,2533
4846,13461,2561,2561
4847,13463,2589,2589
4848,13466,2616,2616
4849,13469,2641,2641
4850,13472,2666,2666
4851,13475,2689,2689
4852,13477,2711,2711
4853,13480,2730,2730
4854,13483,2748,2748
4855,13486,2763,2763
4856,13488,2775,2775
4857,13491,2785,2785
4858,13494,2792,2792
4859,13497,2797,2797
4860,13500,2798,2798
4861,13502,2797,2797
4862,13505,2792,2792
4863,13508,2785,2785
4864,13511,2775,2775
4865,13513,2763,2763
4866,13516,2748,2748
4867,13519,2730,2730
4868,13522,2711,2711
4869,13525,2689,2689
4870,13527,2666,2666
4871,13530,2641,2641
4872,13533,2616,2616
4873,13536,2589,2589
4874,13538,2561,2561
4875,13541,2533,2533
4876,13544,2505,2505
4877,13547,2477,2477
4878,13550,2449,2449
4879,13552,2421,2421
4880,13555,2394,2394
4881,13558,2367,2367
4882,13561,2342,2342
4883,13563,2317,2317
4884,13566,2294,2294
4885,13569,2272,2272
4886,13572,2251,2251
4887,13575,2231,2231
4888,13577,2212,2212
4889,13580,2195,2195
4890,13583,2179,2179
4891,13586,2165,2165
4892,13588,2151,2151
4893,13591,2139,2139
4894,13594,2128,2128
4895,13597,2118,2118
4896,13600,2109,2109
4897,13602,2101,2101
4898,13605,2094,2094
4899,13608,2087,2087
4900,13611,2082,2082
4901,13613,2077,2077
4902,13616,2073,2073
4903,13619,2069,2069
4904,13622,2066,2066
4905,13625,2063,2063
4906,13627,2060,2060
4907,13630,2058,2058
4908,13633,2057,2057
4909,13636,2055,2055
4910,13638,2048,2048
4911,13641,2047,2047
4912,13644,2047,2047
4913,13647,2046,2046
4914,13650,2045,2045
4915,13652,2045,2045
4916,13655,2043,2043
4917,13658,2042,2042
4918,13661,2040,2040
4919,13663,2038,2038
4920,13666,2035,2035
4921,13669,2032,2032
4922,13672,2028,2028
4923,13675,2023,2023
4924,13677,2018,2018
4925,13680,2012,2012
4926,13683,2006,2006
4927,13686,1999,1999
4928,13688,1991,1991
4929,13691,1983,1983
4930,13694,1975,1975
4931,13697,1967,1967
4932,13700,1959,1959
4933,13702,1952,1952
4934,13705,1945,1945
4935,13708,1939,1939
4936,13711,1934,1934
4937,13713,1931,1931
4938,13716,1929,1929
4939,13719,1928,1928
4940,13722,1929,1929
4941,13725,1931,1931
4942,13727,1934,1934
4943,13730,1939,1939
4944,13733,1945,1945
4945,13736,1952,1952
4946,13738,1959,1959
4947,13741,1967,1967
4948,13744,1975,1975
4949,13747,1983,1983
4950,13750,1991,1991
4951,13752,1999,1999
4952,13755,2006,2006
4953,13758,2012,2012
4954,13761,2018,2018
4955,13763,2023,2023
4956,13766,2028,2028
4957,13769,2032,2032
4958,13772,2035,2035
4959,13775,2038,2038
4960,13777,2040,2040
4961,13780,2042,2042
4962,13783,2043,2043
4963,13786,2045,2045
4964,13788,2045,2045
4965,13791,2046,2046
4966,13794,2047,2047
4967,13797,2048,2048
4968,13800,2048,2048
4969,13802,2048,2048
4970,13805,2048,2048
4971,13808,2048,2048
4972,13811,2048,2048
4973,13813,2048,2048
4974,13816,2048,2048
4975,13819,2048,2048
4976,13822,2048,2048
4977,13825,2048,2048
4978,13827,2048,2048
4979,13830,2048,2048
4980,13833,2048,2048
4981,13836,2048,2048
4982,13838,2048,2048
4983,13841,2048,2048
4984,13844,2048,2048
4985,13847,2048,2048
4986,13850,2048,2048
4987,13852,2048,2048
4988,13855,2048,2048
4989,13858,2048,2048
4990,13861,2048,2048
4991,13863,2048,2048
4992,13866,2048,2048
4993,13869,2048,2048
4994,13872,2048,2048
4995,13875,2048,2048
4996,13877,2048,2048
4997,13880,2048,2048
4998,13883,2048,2048
4999,13886,2048,2048
5000,13888,2048,2048
5001,13891,2048,2048
5002,13894,2048,2048
5003,13897,2048,2048
5004,13900,2048,2048
5005,13902,2048,2048
5006,13905,2048,2048
5007,13908,2048,2048
5008,13911,2048,2048
5009,13913,2048,2048
5010,13916,2048,2048
5011,13919,2048,2048
5012,13922,2048,2048
5013,13925,2048,2048
5014,13927,2048,2048
5015,13930,2048,2048
5016,13933,2048,2048
5017,13936,2048,2048
5018,13938,2048,2048
5019,13941,2048,2048
5020,13944,2048,2048
5021,13947,2048,2048
5022,13950,2048,2048
5023,13952,2048,2048
5024,13955,2048,2048
5025,13958,2048,2048
5026,13961,2048,2048
5027,13963,2048,2048
5028,13966,2048,2048
5029,13969,2048,2048
5030,13972,2048,2048
5031,13975,2048,2048
5032,13977,2048,2048
5033,13980,2048,2048
5034,13983,2048,2048
5035,13986,2048,2048
5036,13988,2048,2048
5037,13991,2048,2048
5038,13994,2048,2048
5039,13997,2048,2048
5040,14000,2048,2048
5041,14002,2048,2048
5042,14005,2048,2048
5043,14008,2048,2048
5044,14011,2048,2048
5045,14013,2048,2048
5046,14016,2048,2048
5047,14019,2048,2048
5048,14022,2048,2048
5049,14025,2048,2048
5050,14027,2048,2048
5051,14030,2048,2048
5052,14033,2048,2048
5053,14036,2048,2048
5054,14038,2048,2048
5055,14041,2048,2048
5056,14044,2048,2048
5057,14047,2048,2048
5058,14050,2048,2048
5059,14052,2048,2048
5060,14055,2048,2048
5061,14058,2048,2048
5062,14061,2048,2048
5063,14063,2048,2048
5064,14066,2048,2048
5065,14069,2048,2048
5066,14072,2048,2048
5067,14075,2048,2048
5068,14077,2048,2048
5069,14080,2048,2048
5070,14083,2048,2048
5071,14086,2048,2048
5072,14088,2048,2048
5073,14091,2048,2048
5074,14094,2048,2048
5075,14097,2048,2048
5076,14100,2048,2048
5077,14102,2048,2048
5078,14105,2048,2048
5079,14108,2048,2048
5080,14111,2048,2048
5081,14113,2048,2048
5082,14116,2048,2048
5083,14119,2048,2048
5084,14122,2048,2048
5085,14125,2048,2048
5086,14127,2048,2048
5087,14130,2048,2048
5088,14133,2048,2048
5089,14136,2048,2048
5090,14138,2048,2048
5091,14141,2048,2048
5092,14144,2048,2048
5093,14147,2048,2048
5094,14150,2048,2048
5095,14152,2048,2048
5096,14155,2048,2048
5097,14158,2048,2048
5098,14161,2048,2048
5099,14163,2048,2048
5100,14166,2048,2048
5101,14169,2048,2048
5102,14172,2048,2048
5103,14175,2048,2048
5104,14177,2048,2048
5105,14180,2048,2048
5106,14183,2048,2048
5107,14186,2048,2048
5108,14188,2048,2048
5109,14191,2048,2048
5110,14194,2048,2048
5111,14197,2048,2048
5112,14200,2048,2048
5113,14202,2048,2048
5114,14205,2048,2048
5115,14208,2048,2048
5116,14211,2048,2048
5117,14213,2048,2048
5118,14216,2048,2048
5119,14219,2048,2048
5120,14222,2048,2048
5121,14225,2048,2048
5122,14227,2048,2048
5123,14230,2048,2048
5124,14233,2048,2048
5125,14236,2048,2048
5126,14238,2048,2048
5127,14241,2048,2048
5128,14244,2048,2048
5129,14247,2048,2048
5130,14250,2048,2048
5131,14252,2048,2048
5132,14255,2048,2048
5133,14258,2048,2048
5134,14261,2048,2048
5135,14263,2048,2048
5136,14266,2048,2048
5137,14269,2048,2048
5138,14272,2048,2048
5139,14275,2048,2048
5140,14277,2048,2048
5141,14280,2048,2048
5142,14283,2048,2048
5143,14286,2048,2048
5144,14288,2048,2048
5145,14291,2048,2048
5146,14294,2048,2048
5147,14297,2048,2048
5148,14300,2048,2048
5149,14302,2048,2048
5150,14305,2048,2048
5151,14308,2048,2048
5152,14311,2048,2048
5153,14313,2048,2048
5154,14316,2048,2048
5155,14319,2048,2048
5156,14322,2048,2048
5157,14325,2048,2048
5158,14327,2048,2048
5159,14330,2048,2048
5160,14333,2048,2048
5161,14336,2048,2048
5162,14338,2048,2048
5163,14341,2048,2048
5164,14344,2048,2048
5165,14347,2048,2048
5166,14350,2048,2048
5167,14352,2048,2048
5168,14355,2048,2048
5169,14358,2048,2048
5170,14361,2048,2048
5171,14363,2048,2048
5172,14366,2048,2048
5173,14369,2048,2048
5174,14372,2048,2048
5175,14375,2048,2048
5176,14377,2048,2048
5177,14380,2048,2048
5178,14383,2048,2048
5179,14386,2048,2048
5180,14388,2048,2048
5181,14391,2048,2048
5182,14394,2048,2048
5183,14397,2048,2048
5184,14400,2050,2050
5185,14402,2051,2051
5186,14405,2052,2052
5187,14408,2054,2054
5188,14411,2057,2057
5189,14413,2060,2060
5190,14416,2064,2064
5191,14419,2069,2069
5192,14422,2074,2074
5193,14425,2080,2080
5194,14427,2086,2086
5195,14430,2091,2091
5196,14433,2096,2096
5197,14436,2100,2100
5198,14438,2102,2102
5199,14441,2103,2103
5200,14444,2102,2102
5201,14447,2100,2100
5202,14450,2096,2096
5203,14452,2091,2091
5204,14455,2086,2086
5205,14458,2080,2080
5206,14461,2074,2074
5207,14463,2069,2069
5208,14466,2064,2064
5209,14469,2060,2060
5210,14472,2057,2057
5211,14475,2054,2054
5212,14477,2052,2052
5213,14480,2051,2051
5214,14483,2050,2050
5215,14486,2049,2049
5216,14488,2049,2049
5217,14491,2048,2048
5218,14494,2048,2048
5219,14497,2048,2048
5220,14500,2048,2048
5221,14502,2048,2048
5222,14505,2048,2048
5223,14508,2048,2048
5224,14511,2048,2048
5225,14513,2048,2048
5226,14516,2048,2048
5227,14519,2048,2048
5228,14522,2048,2048
5229,14525,2048,2048
5230,14527,2048,2048
5231,14530,2048,2048
5232,14533,2048,2048
5233,14536,2048,2048
5234,14538,2048,2048
5235,14541,2051,2051
5236,14544,2052,2052
5237,14547,2055,2055
5238,14550,2058,2058
5239,14552,2063,2063
5240,14555,2069,2069
5241,14558,2078,2078
5242,14561,2089,2089
5243,14563,2103,2103
5244,14566,2120,2120
5245,14569,2141,2141
5246,14572,2165,2165
5247,14575,2192,2192
5248,14577,2221,2221
5249,14580,2252,2252
5250,14583,2284,2284
5251,14586,2314,2314
5252,14588,2342,2342
5253,14591,2365,2365
5254,14594,2383,2383
5255,14597,2394,2394
5256,14600,2398,2398
5257,14602,2394,2394
5258,14605,2383,2383
5259,14608,2365,2365
5260,14611,2342,2342
5261,14613,2314,2314
5262,14616,2284,2284
5263,14619,2252,2252
5264,14622,2221,2221
5265,14625,2192,2192
5266,14627,2165,2165
5267,14630,2141,2141
5268,14633,2120,2120
5269,14636,2103,2103
5270,14638,2089,2089
5271,14641,2078,2078
5272,14644,2069,2069
5273,14647,2063,2063
5274,14650,2058,2058
5275,14652,2055,2055
5276,14655,2052,2052
5277,14658,2048,2048
5278,14661,2048,2048
5279,14663,2048,2048
5280,14666,2048,2048
5281,14669,2048,2048
5282,14672,2048,2048
5283,14675,2048,2048
5284,14677,2048,2048
5285,14680,2048,2048
5286,14683,2048,2048
5287,14686,2048,2048
5288,14688,2048,2048
5289,14691,2048,2048
5290,14694,2048,2048
5291,14697,2048,2048
5292,14700,2048,2048
5293,14702,2048,2048
5294,14705,2048,2048
5295,14708,2048,2048
5296,14711,2048,2048
5297,14713,2048,2048
5298,14716,2048,2048
5299,14719,2048,2048
5300,14722,2048,2048
5301,14725,2048,2048
5302,14727,2048,2048
5303,14730,2048,2048
5304,14733,2048,2048
5305,14736,2048,2048
5306,14738,2048,2048
5307,14741,2049,2049
5308,14744,2049,2049
5309,14747,2049,2049
5310,14750,2050,2050
5311,14752,2051,2051
5312,14755,2051,2051
5313,14758,2053,2053
5314,14761,2054,2054
5315,14763,2056,2056
5316,14766,2058,2058
5317,14769,2060,2060
5318,14772,2063,2063
5319,14775,2067,2067
5320,14777,2070,2070
5321,14780,2075,2075
5322,14783,2080,2080
5323,14786,2085,2085
5324,14788,2091,2091
5325,14791,2097,2097
5326,14794,2103,2103
5327,14797,2109,2109
5328,14800,2115,2115
5329,14802,2120,2120
5330,14805,2125,2125
5331,14808,2130,2130
5332,14811,2133,2133
5333,14813,2136,2136
5334,14816,2137,2137
5335,14819,2138,2138
5336,14822,2137,2137
5337,14825,2136,2136
5338,14827,2133,2133
5339,14830,2130,2130
5340,14833,2125,2125
5341,14836,2120,2120
5342,14838,2115,2115
5343,14841,2109,2109
5344,14844,2103,2103
5345,14847,2097,2097
5346,14850,2091,2091
5347,14852,2085,2085
5348,14855,2080,2080
5349,14858,2075,2075
5350,14861,2070,2070
5351,14863,2067,2067
5352,14866,2063,2063
5353,14869,2060,2060
5354,14872,2058,2058
5355,14875,2056,2056
5356,14877,2054,2054
5357,14880,2053,2053
5358,14883,2051,2051
5359,14886,2051,2051
5360,14888,2050,2050
5361,14891,2049,2049
5362,14894,2049,2049
5363,14897,2048,2048
5364,14900,2048,2048
5365,14902,2048,2048
5366,14905,2048,2048
5367,14908,2048,2048
5368,14911,2048,2048
5369,14913,2048,2048
5370,14916,2048,2048
5371,14919,2048,2048
5372,14922,2048,2048
5373,14925,2048,2048
5374,14927,2048,2048
5375,14930,2048,2048
5376,14933,2048,2048
5377,14936,2048,2048
5378,14938,2048,2048
5379,14941,2048,2048
5380,14944,2048,2048
5381,14947,2048,2048
5382,14950,2048,2048
5383,14952,2048,2048
5384,14955,2048,2048
5385,14958,2048,2048
5386,14961,2054,2054
5387,14963,2055,2055
5388,14966,2057,2057
5389,14969,2058,2058
5390,14972,2060,2060
5391,14975,2063,2063
5392,14977,2066,2066
5393,14980,2069,2069
5394,14983,2073,2073
5395,14986,2077,2077
5396,14988,2082,2082
5397,14991,2087,2087
5398,14994,2094,2094
5399,14997,2101,2101
