Index,Time_ms,Raw,Filtered
0,0,2050,2050
1,2,2051,2051
2,5,2052,2052
3,8,2054,2054
4,11,2057,2057
5,13,2060,2060
6,16,2064,2064
7,19,2069,2069
8,22,2074,2074
9,25,2080,2080
10,27,2086,2086
11,30,2091,2091
12,33,2096,2096
13,36,2100,2100
14,38,2102,2102
15,41,2103,2103
16,44,2102,2102
17,47,2100,2100
18,50,2096,2096
19,52,2091,2091
20,55,2086,2086
21,58,2080,2080
22,61,2074,2074
23,63,2069,2069
24,66,2064,2064
25,69,2060,2060
26,72,2057,2057
27,75,2054,2054
28,77,2052,2052
29,80,2051,2051
30,83,2050,2050
31,86,2049,2049
32,88,2049,2049
33,91,2048,2048
34,94,2048,2048
35,97,2048,2048
36,100,2048,2048
37,102,2048,2048
38,105,2048,2048
39,108,2048,2048
40,111,2048,2048
41,113,2048,2048
42,116,2048,2048
43,119,2048,2048
44,122,2048,2048
45,125,2048,2048
46,127,2048,2048
47,130,2048,2048
48,133,2048,2048
49,136,2048,2048
50,138,2048,2048
51,141,2051,2051
52,144,2052,2052
53,147,2055,2055
54,150,2058,2058
55,152,2063,2063
56,155,2069,2069
57,158,2078,2078
58,161,2089,2089
59,163,2103,2103
60,166,2120,2120
61,169,2141,2141
62,172,2165,2165
63,175,2192,2192
64,177,2221,2221
65,180,2252,2252
66,183,2284,2284
67,186,2314,2314
68,188,2342,2342
69,191,2365,2365
70,194,2383,2383
71,197,2394,2394
72,200,2398,2398
73,202,2394,2394
74,205,2383,2383
75,208,2365,2365
76,211,2342,2342
77,213,2314,2314
78,216,2284,2284
79,219,2252,2252
80,222,2221,2221
81,225,2192,2192
82,227,2165,2165
83,230,2141,2141
84,233,2120,2120
85,236,2103,2103
86,238,2089,2089
87,241,2078,2078
88,244,2069,2069
89,247,2063,2063
90,250,2058,2058
91,252,2055,2055
92,255,2052,2052
93,258,2048,2048
94,261,2048,2048
95,263,2048,2048
96,266,2048,2048
97,269,2048,2048
98,272,2048,2048
99,275,2048,2048
100,277,2048,2048
101,280,2048,2048
102,283,2048,2048
103,286,2048,2048
104,288,2048,2048
105,291,2048,2048
106,294,2048,2048
107,297,2048,2048
108,300,2048,2048
109,302,2048,2048
110,305,2048,2048
111,308,2048,2048
112,311,2048,2048
113,313,2048,2048
114,316,2048,2048
115,319,2048,2048
116,322,2048,2048
117,325,2048,2048
118,327,2048,2048
119,330,2048,2048
120,333,2048,2048
121,336,2048,2048
122,338,2048,2048
123,341,2049,2049
124,344,2049,2049
125,347,2049,2049
126,350,2050,2050
127,352,2051,2051
128,355,2051,2051
129,358,2053,2053
130,361,2054,2054
131,363,2056,2056
132,366,2058,2058
133,369,2060,2060
134,372,2063,2063
135,375,2067,2067
136,377,2070,2070
137,380,2075,2075
138,383,2080,2080
139,386,2085,2085
140,388,2091,2091
141,391,2097,2097
142,394,2103,2103
143,397,2109,2109
144,400,2115,2115
145,402,2120,2120
146,405,2125,2125
147,408,2130,2130
148,411,2133,2133
149,413,2136,2136
150,416,2137,2137
151,419,2138,2138
152,422,2137,2137
153,425,2136,2136
154,427,2133,2133
155,430,2130,2130
156,433,2125,2125
157,436,2120,2120
158,438,2115,2115
159,441,2109,2109
160,444,2103,2103
161,447,2097,2097
162,450,2091,2091
163,452,2085,2085
164,455,2080,2080
165,458,2075,2075
166,461,2070,2070
167,463,2067,2067
168,466,2063,2063
169,469,2060,2060
170,472,2058,2058
171,475,2056,2056
172,477,2054,2054
173,480,2053,2053
174,483,2051,2051
175,486,2051,2051
176,488,2050,2050
177,491,2049,2049
178,494,2049,2049
179,497,2048,2048
180,500,2048,2048
181,502,2048,2048
182,505,2048,2048
183,508,2048,2048
184,511,2048,2048
185,513,2048,2048
186,516,2048,2048
187,519,2048,2048
188,522,2048,2048
189,525,2048,2048
190,527,2048,2048
191,530,2048,2048
192,533,2048,2048
193,536,2048,2048
194,538,2048,2048
195,541,2048,2048
196,544,2048,2048
197,547,2048,2048
198,550,2048,2048
199,552,2048,2048
200,555,2048,2048
201,558,2048,2048
202,561,2048,2048
203,563,2048,2048
204,566,2048,2048
205,569,2048,2048
206,572,2048,2048
207,575,2048,2048
208,577,2048,2048
209,580,2048,2048
210,583,2048,2048
211,586,2048,2048
212,588,2048,2048
213,591,2048,2048
214,594,2048,2048
215,597,2048,2048
216,600,2048,2048
217,602,2048,2048
218,605,2048,2048
219,608,2048,2048
220,611,2048,2048
221,613,2048,2048
222,616,2048,2048
223,619,2048,2048
224,622,2048,2048
225,625,2048,2048
226,627,2048,2048
227,630,2048,2048
228,633,2048,2048
229,636,2048,2048
230,638,2048,2048
231,641,2048,2048
232,644,2048,2048
233,647,2048,2048
234,650,2048,2048
235,652,2048,2048
236,655,2048,2048
237,658,2048,2048
238,661,2048,2048
239,663,2048,2048
240,666,2048,2048
241,669,2048,2048
242,672,2048,2048
243,675,2048,2048
244,677,2048,2048
245,680,2048,2048
246,683,2048,2048
247,686,2048,2048
248,688,2048,2048
249,691,2048,2048
250,694,2048,2048
251,697,2048,2048
252,700,2048,2048
253,702,2048,2048
254,705,2048,2048
255,708,2048,2048
256,711,2048,2048
257,713,2048,2048
258,716,2048,2048
259,719,2048,2048
260,722,2048,2048
261,725,2048,2048
262,727,2048,2048
263,730,2048,2048
264,733,2048,2048
265,736,2048,2048
266,738,2048,2048
267,741,2048,2048
268,744,2048,2048
269,747,2048,2048
270,750,2048,2048
271,752,2048,2048
272,755,2048,2048
273,758,2048,2048
274,761,2048,2048
275,763,2048,2048
276,766,2048,2048
277,769,2048,2048
278,772,2048,2048
279,775,2048,2048
280,777,2048,2048
281,780,2048,2048
282,783,2048,2048
283,786,2048,2048
284,788,2048,2048
285,791,2048,2048
286,794,2048,2048
287,797,2048,2048
288,800,2050,2050
289,802,2051,2051
290,805,2052,2052
291,808,2054,2054
292,811,2057,2057
293,813,2060,2060
294,816,2064,2064
295,819,2069,2069
296,822,2074,2074
297,825,2080,2080
298,827,2086,2086
299,830,2091,2091
300,833,2096,2096
301,836,2100,2100
302,838,2102,2102
303,841,2103,2103
304,844,2102,2102
305,847,2100,2100
306,850,2096,2096
307,852,2091,2091
308,855,2086,2086
309,858,2080,2080
310,861,2074,2074
311,863,2069,2069
312,866,2064,2064
313,869,2060,2060
314,872,2057,2057
315,875,2054,2054
316,877,2052,2052
317,880,2051,2051
318,883,2050,2050
319,886,2049,2049
320,888,2049,2049
321,891,2048,2048
322,894,2048,2048
323,897,2048,2048
324,900,2048,2048
325,902,2048,2048
326,905,2048,2048
327,908,2048,2048
328,911,2048,2048
329,913,2048,2048
330,916,2048,2048
331,919,2048,2048
332,922,2048,2048
333,925,2048,2048
334,927,2048,2048
335,930,2048,2048
336,933,2048,2048
337,936,2048,2048
338,938,2048,2048
339,941,2051,2051
340,944,2052,2052
341,947,2055,2055
342,950,2058,2058
343,952,2063,2063
344,955,2069,2069
345,958,2078,2078
346,961,2089,2089
347,963,2103,2103
348,966,2120,2120
349,969,2141,2141
350,972,2165,2165
351,975,2192,2192
352,977,2221,2221
353,980,2252,2252
354,983,2284,2284
355,986,2314,2314
356,988,2342,2342
357,991,2365,2365
358,994,2383,2383
359,997,2394,2394
360,1000,2398,2398
361,1002,2394,2394
362,1005,2383,2383
363,1008,2365,2365
364,1011,2342,2342
365,1013,2314,2314
366,1016,2284,2284
367,1019,2252,2252
368,1022,2221,2221
369,1025,2192,2192
370,1027,2165,2165
371,1030,2141,2141
372,1033,2120,2120
373,1036,2103,2103
374,1038,2089,2089
375,1041,2078,2078
376,1044,2069,2069
377,1047,2063,2063
378,1050,2058,2058
379,1052,2055,2055
380,1055,2052,2052
381,1058,2048,2048
382,1061,2048,2048
383,1063,2048,2048
384,1066,2048,2048
385,1069,2048,2048
386,1072,2048,2048
387,1075,2048,2048
388,1077,2048,2048
389,1080,2048,2048
390,1083,2048,2048
391,1086,2048,2048
392,1088,2048,2048
393,1091,2048,2048
394,1094,2048,2048
395,1097,2048,2048
396,1100,2048,2048
397,1102,2048,2048
398,1105,2048,2048
399,1108,2048,2048
400,1111,2048,2048
401,1113,2048,2048
402,1116,2048,2048
403,1119,2048,2048
404,1122,2048,2048
405,1125,2048,2048
406,1127,2048,2048
407,1130,2048,2048
408,1133,2048,2048
409,1136,2048,2048
410,1138,2048,2048
411,1141,2049,2049
412,1144,2049,2049
413,1147,2049,2049
414,1150,2050,2050
415,1152,2051,2051
416,1155,2051,2051
417,1158,2053,2053
418,1161,2054,2054
419,1163,2056,2056
420,1166,2058,2058
421,1169,2060,2060
422,1172,2063,2063
423,1175,2067,2067
424,1177,2070,2070
425,1180,2075,2075
426,1183,2080,2080
427,1186,2085,2085
428,1188,2091,2091
429,1191,2097,2097
430,1194,2103,2103
431,1197,2109,2109
432,1200,2115,2115
433,1202,2120,2120
434,1205,2125,2125
435,1208,2130,2130
436,1211,2133,2133
437,1213,2136,2136
438,1216,2137,2137
439,1219,2138,2138
440,1222,2137,2137
441,1225,2136,2136
442,1227,2133,2133
443,1230,2130,2130
444,1233,2125,2125
445,1236,2120,2120
446,1238,2115,2115
447,1241,2109,2109
448,1244,2103,2103
449,1247,2097,2097
450,1250,2091,2091
451,1252,2085,2085
452,1255,2080,2080
453,1258,2075,2075
454,1261,2070,2070
455,1263,2067,2067
456,1266,2063,2063
457,1269,2060,2060
458,1272,2058,2058
459,1275,2056,2056
460,1277,2054,2054
461,1280,2053,2053
462,1283,2051,2051
463,1286,2051,2051
464,1288,2050,2050
465,1291,2049,2049
466,1294,2049,2049
467,1297,2048,2048
468,1300,2048,2048
469,1302,2048,2048
470,1305,2048,2048
471,1308,2048,2048
472,1311,2048,2048
473,1313,2048,2048
474,1316,2048,2048
475,1319,2048,2048
476,1322,2048,2048
477,1325,2048,2048
478,1327,2048,2048
479,1330,2048,2048
480,1333,2048,2048
481,1336,2048,2048
482,1338,2048,2048
483,1341,2048,2048
484,1344,2048,2048
485,1347,2048,2048
486,1350,2048,2048
487,1352,2048,2048
488,1355,2048,2048
489,1358,2048,2048
490,1361,2048,2048
491,1363,2048,2048
492,1366,2048,2048
493,1369,2048,2048
494,1372,2048,2048
495,1375,2048,2048
496,1377,2048,2048
497,1380,2048,2048
498,1383,2048,2048
499,1386,2048,2048
500,1388,2048,2048
501,1391,2048,2048
502,1394,2048,2048
503,1397,2048,2048
504,1400,2048,2048
505,1402,2048,2048
506,1405,2048,2048
507,1408,2048,2048
508,1411,2048,2048
509,1413,2048,2048
510,1416,2048,2048
511,1419,2048,2048
512,1422,2048,2048
513,1425,2048,2048
514,1427,2048,2048
515,1430,2048,2048
516,1433,2048,2048
517,1436,2048,2048
518,1438,2048,2048
519,1441,2048,2048
520,1444,2048,2048
521,1447,2048,2048
522,1450,2048,2048
523,1452,2048,2048
524,1455,2048,2048
525,1458,2048,2048
526,1461,2048,2048
527,1463,2048,2048
528,1466,2048,2048
529,1469,2048,2048
530,1472,2048,2048
531,1475,2048,2048
532,1477,2048,2048
533,1480,2048,2048
534,1483,2048,2048
535,1486,2048,2048
536,1488,2048,2048
537,1491,2048,2048
538,1494,2048,2048
539,1497,2048,2048
540,1500,2048,2048
541,1502,2048,2048
542,1505,2048,2048
543,1508,2048,2048
544,1511,2048,2048
545,1513,2048,2048
546,1516,2048,2048
547,1519,2048,2048
548,1522,2048,2048
549,1525,2048,2048
550,1527,2048,2048
551,1530,2048,2048
552,1533,2048,2048
553,1536,2048,2048
554,1538,2048,2048
555,1541,2048,2048
556,1544,2048,2048
557,1547,2048,2048
558,1550,2048,2048
559,1552,2048,2048
560,1555,2048,2048
561,1558,2048,2048
562,1561,2048,2048
563,1563,2048,2048
564,1566,2048,2048
565,1569,2048,2048
566,1572,2048,2048
567,1575,2048,2048
568,1577,2048,2048
569,1580,2048,2048
570,1583,2048,2048
571,1586,2048,2048
572,1588,2048,2048
573,1591,2048,2048
574,1594,2048,2048
575,1597,2048,2048
576,1600,2050,2050
577,1602,2051,2051
578,1605,2052,2052
579,1608,2054,2054
580,1611,2057,2057
581,1613,2060,2060
582,1616,2064,2064
583,1619,2069,2069
584,1622,2074,2074
585,1625,2080,2080
586,1627,2086,2086
587,1630,2091,2091
588,1633,2096,2096
589,1636,2100,2100
590,1638,2102,2102
591,1641,2103,2103
592,1644,2102,2102
593,1647,2100,2100
594,1650,2096,2096
595,1652,2091,2091
596,1655,2086,2086
597,1658,2080,2080
598,1661,2074,2074
599,1663,2069,2069
600,1666,2064,2064
601,1669,2060,2060
602,1672,2057,2057
603,1675,2054,2054
604,1677,2052,2052
605,1680,2051,2051
606,1683,2050,2050
607,1686,2049,2049
608,1688,2049,2049
609,1691,2048,2048
610,1694,2048,2048
611,1697,2048,2048
612,1700,2048,2048
613,1702,2048,2048
614,1705,2048,2048
615,1708,2048,2048
616,1711,2048,2048
617,1713,2048,2048
618,1716,2048,2048
619,1719,2048,2048
620,1722,2048,2048
621,1725,2048,2048
622,1727,2048,2048
623,1730,2048,2048
624,1733,2048,2048
625,1736,2048,2048
626,1738,2048,2048
627,1741,2051,2051
628,1744,2052,2052
629,1747,2055,2055
630,1750,2058,2058
631,1752,2063,2063
632,1755,2069,2069
633,1758,2078,2078
634,1761,2089,2089
635,1763,2103,2103
636,1766,2120,2120
637,1769,2141,2141
638,1772,2165,2165
639,1775,2192,2192
640,1777,2221,2221
641,1780,2252,2252
642,1783,2284,2284
643,1786,2314,2314
644,1788,2342,2342
645,1791,2365,2365
646,1794,2383,2383
647,1797,2394,2394
648,1800,2398,2398
649,1802,2394,2394
650,1805,2383,2383
651,1808,2365,2365
652,1811,2342,2342
653,1813,2314,2314
654,1816,2284,2284
655,1819,2252,2252
656,1822,2221,2221
657,1825,2192,2192
658,1827,2165,2165
659,1830,2141,2141
660,1833,2120,2120
661,1836,2103,2103
662,1838,2089,2089
663,1841,2078,2078
664,1844,2069,2069
665,1847,2063,2063
666,1850,2058,2058
667,1852,2055,2055
668,1855,2052,2052
669,1858,2048,2048
670,1861,2048,2048
671,1863,2048,2048
672,1866,2048,2048
673,1869,2048,2048
674,1872,2048,2048
675,1875,2048,2048
676,1877,2048,2048
677,1880,2048,2048
678,1883,2048,2048
679,1886,2048,2048
680,1888,2048,2048
681,1891,2048,2048
682,1894,2048,2048
683,1897,2048,2048
684,1900,2048,2048
685,1902,2048,2048
686,1905,2048,2048
687,1908,2048,2048
688,1911,2048,2048
689,1913,2048,2048
690,1916,2048,2048
691,1919,2048,2048
692,1922,2048,2048
693,1925,2048,2048
694,1927,2048,2048
695,1930,2048,2048
696,1933,2048,2048
697,1936,2048,2048
698,1938,2048,2048
699,1941,2049,2049
700,1944,2049,2049
701,1947,2049,2049
702,1950,2050,2050
703,1952,2051,2051
704,1955,2051,2051
705,1958,2053,2053
706,1961,2054,2054
707,1963,2056,2056
708,1966,2058,2058
709,1969,2060,2060
710,1972,2063,2063
711,1975,2067,2067
712,1977,2070,2070
713,1980,2075,2075
714,1983,2080,2080
715,1986,2085,2085
716,1988,2091,2091
717,1991,2097,2097
718,1994,2103,2103
719,1997,2109,2109
720,2000,2115,2115
721,2002,2120,2120
722,2005,2125,2125
723,2008,2130,2130
724,2011,2133,2133
725,2013,2136,2136
726,2016,2137,2137
727,2019,2138,2138
728,2022,2137,2137
729,2025,2136,2136
730,2027,2133,2133
731,2030,2130,2130
732,2033,2125,2125
733,2036,2120,2120
734,2038,2115,2115
735,2041,2109,2109
736,2044,2103,2103
737,2047,2097,2097
738,2050,2091,2091
739,2052,2085,2085
740,2055,2080,2080
741,2058,2075,2075
742,2061,2070,2070
743,2063,2067,2067
744,2066,2063,2063
745,2069,2060,2060
746,2072,2058,2058
747,2075,2056,2056
748,2077,2054,2054
749,2080,2053,2053
750,2083,2051,2051
751,2086,2051,2051
752,2088,2050,2050
753,2091,2049,2049
754,2094,2049,2049
755,2097,2048,2048
756,2100,2048,2048
757,2102,2048,2048
758,2105,2048,2048
759,2108,2048,2048
760,2111,2048,2048
761,2113,2048,2048
762,2116,2048,2048
763,2119,2048,2048
764,2122,2048,2048
765,2125,2048,2048
766,2127,2048,2048
767,2130,2048,2048
768,2133,2048,2048
769,2136,2048,2048
770,2138,2048,2048
771,2141,2048,2048
772,2144,2048,2048
773,2147,2048,2048
774,2150,2048,2048
775,2152,2048,2048
776,2155,2048,2048
777,2158,2048,2048
778,2161,2048,2048
779,2163,2048,2048
780,2166,2048,2048
781,2169,2048,2048
782,2172,2048,2048
783,2175,2048,2048
784,2177,2048,2048
785,2180,2048,2048
786,2183,2048,2048
787,2186,2048,2048
788,2188,2048,2048
789,2191,2048,2048
790,2194,2048,2048
791,2197,2048,2048
792,2200,2048,2048
793,2202,2048,2048
794,2205,2048,2048
795,2208,2048,2048
796,2211,2048,2048
797,2213,2048,2048
798,2216,2048,2048
799,2219,2048,2048
800,2222,2048,2048
801,2225,2048,2048
802,2227,2048,2048
803,2230,2048,2048
804,2233,2048,2048
805,2236,2048,2048
806,2238,2048,2048
807,2241,2048,2048
808,2244,2048,2048
809,2247,2048,2048
810,2250,2048,2048
811,2252,2048,2048
812,2255,2048,2048
813,2258,2048,2048
814,2261,2048,2048
815,2263,2048,2048
816,2266,2048,2048
817,2269,2048,2048
818,2272,2048,2048
819,2275,2048,2048
820,2277,2048,2048
821,2280,2048,2048
822,2283,2048,2048
823,2286,2048,2048
824,2288,2048,2048
825,2291,2048,2048
826,2294,2048,2048
827,2297,2048,2048
828,2300,2048,2048
829,2302,2048,2048
830,2305,2048,2048
831,2308,2048,2048
832,2311,2048,2048
833,2313,2048,2048
834,2316,2048,2048
835,2319,2048,2048
836,2322,2048,2048
837,2325,2048,2048
838,2327,2048,2048
839,2330,2048,2048
840,2333,2048,2048
841,2336,2048,2048
842,2338,2048,2048
843,2341,2048,2048
844,2344,2048,2048
845,2347,2048,2048
846,2350,2048,2048
847,2352,2048,2048
848,2355,2048,2048
849,2358,2048,2048
850,2361,2048,2048
851,2363,2048,2048
852,2366,2048,2048
853,2369,2048,2048
854,2372,2048,2048
855,2375,2048,2048
856,2377,2048,2048
857,2380,2048,2048
858,2383,2048,2048
859,2386,2048,2048
860,2388,2048,2048
861,2391,2048,2048
862,2394,2048,2048
863,2397,2048,2048
864,2400,2050,2050
865,2402,2051,2051
866,2405,2052,2052
867,2408,2054,2054
868,2411,2057,2057
869,2413,2060,2060
870,2416,2064,2064
871,2419,2069,2069
872,2422,2074,2074
873,2425,2080,2080
874,2427,2086,2086
875,2430,2091,2091
876,2433,2096,2096
877,2436,2100,2100
878,2438,2102,2102
879,2441,2103,2103
880,2444,2102,2102
881,2447,2100,2100
882,2450,2096,2096
883,2452,2091,2091
884,2455,2086,2086
885,2458,2080,2080
886,2461,2074,2074
887,2463,2069,2069
888,2466,2064,2064
889,2469,2060,2060
890,2472,2057,2057
891,2475,2054,2054
892,2477,2052,2052
893,2480,2051,2051
894,2483,2050,2050
895,2486,2049,2049
896,2488,2049,2049
897,2491,2048,2048
898,2494,2048,2048
899,2497,2048,2048
900,2500,2048,2048
901,2502,2048,2048
902,2505,2048,2048
903,2508,2048,2048
904,2511,2048,2048
905,2513,2048,2048
906,2516,2048,2048
907,2519,2048,2048
908,2522,2048,2048
909,2525,2048,2048
910,2527,2048,2048
911,2530,2048,2048
912,2533,2048,2048
913,2536,2048,2048
914,2538,2048,2048
915,2541,2051,2051
916,2544,2052,2052
917,2547,2055,2055
918,2550,2058,2058
919,2552,2063,2063
920,2555,2069,2069
921,2558,2078,2078
922,2561,2089,2089
923,2563,2103,2103
924,2566,2120,2120
925,2569,2141,2141
926,2572,2165,2165
927,2575,2192,2192
928,2577,2221,2221
929,2580,2252,2252
930,2583,2284,2284
931,2586,2314,2314
932,2588,2342,2342
933,2591,2365,2365
934,2594,2383,2383
935,2597,2394,2394
936,2600,2398,2398
937,2602,2394,2394
938,2605,2383,2383
939,2608,2365,2365
940,2611,2342,2342
941,2613,2314,2314
942,2616,2284,2284
943,2619,2252,2252
944,2622,2221,2221
945,2625,2192,2192
946,2627,2165,2165
947,2630,2141,2141
948,2633,2120,2120
949,2636,2103,2103
950,2638,2089,2089
951,2641,2078,2078
952,2644,2069,2069
953,2647,2063,2063
954,2650,2058,2058
955,2652,2055,2055
956,2655,2052,2052
957,2658,2048,2048
958,2661,2048,2048
959,2663,2048,2048
960,2666,2048,2048
961,2669,2048,2048
962,2672,2048,2048
963,2675,2048,2048
964,2677,2048,2048
965,2680,2048,2048
966,2683,2048,2048
967,2686,2048,2048
968,2688,2048,2048
969,2691,2048,2048
970,2694,2048,2048
971,2697,2048,2048
972,2700,2048,2048
973,2702,2048,2048
974,2705,2048,2048
975,2708,2048,2048
976,2711,2048,2048
977,2713,2048,2048
978,2716,2048,2048
979,2719,2048,2048
980,2722,2048,2048
981,2725,2048,2048
982,2727,2048,2048
983,2730,2048,2048
984,2733,2048,2048
985,2736,2048,2048
986,2738,2048,2048
987,2741,2049,2049
988,2744,2049,2049
989,2747,2049,2049
990,2750,2050,2050
991,2752,2051,2051
992,2755,2051,2051
993,2758,2053,2053
994,2761,2054,2054
995,2763,2056,2056
996,2766,2058,2058
997,2769,2060,2060
998,2772,2063,2063
999,2775,2067,2067
1000,2777,2070,2070
1001,2780,2075,2075
1002,2783,2080,2080
1003,2786,2085,2085
1004,2788,2091,2091
1005,2791,2097,2097
1006,2794,2103,2103
1007,2797,2109,2109
1008,2800,2115,2115
1009,2802,2120,2120
1010,2805,2125,2125
1011,2808,2130,2130
1012,2811,2133,2133
1013,2813,2136,2136
1014,2816,2137,2137
1015,2819,2138,2138
1016,2822,2137,2137
1017,2825,2136,2136
1018,2827,2133,2133
1019,2830,2130,2130
1020,2833,2125,2125
1021,2836,2120,2120
1022,2838,2115,2115
1023,2841,2109,2109
1024,2844,2103,2103
1025,2847,2097,2097
1026,2850,2091,2091
1027,2852,2085,2085
1028,2855,2080,2080
1029,2858,2075,2075
1030,2861,2070,2070
1031,2863,2067,2067
1032,2866,2063,2063
1033,2869,2060,2060
1034,2872,2058,2058
1035,2875,2056,2056
1036,2877,2054,2054
1037,2880,2053,2053
1038,2883,2051,2051
1039,2886,2051,2051
1040,2888,2050,2050
1041,2891,2049,2049
1042,2894,2049,2049
1043,2897,2048,2048
1044,2900,2048,2048
1045,2902,2048,2048
1046,2905,2048,2048
1047,2908,2048,2048
1048,2911,2048,2048
1049,2913,2048,2048
1050,2916,2048,2048
1051,2919,2048,2048
1052,2922,2048,2048
1053,2925,2048,2048
1054,2927,2048,2048
1055,2930,2048,2048
1056,2933,2048,2048
1057,2936,2048,2048
1058,2938,2048,2048
1059,2941,2048,2048
1060,2944,2048,2048
1061,2947,2048,2048
1062,2950,2048,2048
1063,2952,2048,2048
1064,2955,2048,2048
1065,2958,2048,2048
1066,2961,2048,2048
1067,2963,2048,2048
1068,2966,2048,2048
1069,2969,2048,2048
1070,2972,2048,2048
1071,2975,2048,2048
1072,2977,2048,2048
1073,2980,2048,2048
1074,2983,2048,2048
1075,2986,2048,2048
1076,2988,2048,2048
1077,2991,2048,2048
1078,2994,2048,2048
1079,2997,2048,2048
1080,3000,2048,2048
1081,3002,2048,2048
1082,3005,2048,2048
1083,3008,2048,2048
1084,3011,2048,2048
1085,3013,2048,2048
1086,3016,2048,2048
1087,3019,2048,2048
1088,3022,2048,2048
1089,3025,2048,2048
1090,3027,2048,2048
1091,3030,2048,2048
1092,3033,2048,2048
1093,3036,2048,2048
1094,3038,2048,2048
1095,3041,2048,2048
1096,3044,2048,2048
1097,3047,2048,2048
1098,3050,2048,2048
1099,3052,2048,2048
1100,3055,2048,2048
1101,3058,2048,2048
1102,3061,2048,2048
1103,3063,2048,2048
1104,3066,2048,2048
1105,3069,2048,2048
1106,3072,2048,2048
1107,3075,2048,2048
1108,3077,2048,2048
1109,3080,2048,2048
1110,3083,2048,2048
1111,3086,2048,2048
1112,3088,2048,2048
1113,3091,2048,2048
1114,3094,2048,2048
1115,3097,2048,2048
1116,3100,2048,2048
1117,3102,2048,2048
1118,3105,2048,2048
1119,3108,2048,2048
1120,3111,2048,2048
1121,3113,2048,2048
1122,3116,2048,2048
1123,3119,2048,2048
1124,3122,2048,2048
1125,3125,2048,2048
1126,3127,2048,2048
1127,3130,2048,2048
1128,3133,2048,2048
1129,3136,2048,2048
1130,3138,2048,2048
1131,3141,2048,2048
1132,3144,2048,2048
1133,3147,2048,2048
1134,3150,2048,2048
1135,3152,2048,2048
1136,3155,2048,2048
1137,3158,2048,2048
1138,3161,2048,2048
1139,3163,2048,2048
1140,3166,2048,2048
1141,3169,2048,2048
1142,3172,2048,2048
1143,3175,2048,2048
1144,3177,2048,2048
1145,3180,2048,2048
1146,3183,2048,2048
1147,3186,2048,2048
1148,3188,2048,2048
1149,3191,2048,2048
1150,3194,2048,2048
1151,3197,2048,2048
1152,3200,2050,2050
1153,3202,2051,2051
1154,3205,2052,2052
1155,3208,2054,2054
1156,3211,2057,2057
1157,3213,2060,2060
1158,3216,2064,2064
1159,3219,2069,2069
1160,3222,2074,2074
1161,3225,2080,2080
1162,3227,2086,2086
1163,3230,2091,2091
1164,3233,2096,2096
1165,3236,2100,2100
1166,3238,2102,2102
1167,3241,2103,2103
1168,3244,2102,2102
1169,3247,2100,2100
1170,3250,2096,2096
1171,3252,2091,2091
1172,3255,2086,2086
1173,3258,2080,2080
1174,3261,2074,2074
1175,3263,2069,2069
1176,3266,2064,2064
1177,3269,2060,2060
1178,3272,2057,2057
1179,3275,2054,2054
1180,3277,2052,2052
1181,3280,2051,2051
1182,3283,2050,2050
1183,3286,2049,2049
1184,3288,2049,2049
1185,3291,2048,2048
1186,3294,2048,2048
1187,3297,2048,2048
1188,3300,2048,2048
1189,3302,2048,2048
1190,3305,2048,2048
1191,3308,2048,2048
1192,3311,2048,2048
1193,3313,2048,2048
1194,3316,2048,2048
1195,3319,2048,2048
1196,3322,2048,2048
1197,3325,2048,2048
1198,3327,2048,2048
1199,3330,2048,2048
1200,3333,2048,2048
1201,3336,2048,2048
1202,3338,2048,2048
1203,3341,2051,2051
1204,3344,2052,2052
1205,3347,2055,2055
1206,3350,2058,2058
1207,3352,2063,2063
1208,3355,2069,2069
1209,3358,2078,2078
1210,3361,2089,2089
1211,3363,2103,2103
1212,3366,2120,2120
1213,3369,2141,2141
1214,3372,2165,2165
1215,3375,2192,2192
1216,3377,2221,2221
1217,3380,2252,2252
1218,3383,2284,2284
1219,3386,2314,2314
1220,3388,2342,2342
1221,3391,2365,2365
1222,3394,2383,2383
1223,3397,2394,2394
1224,3400,2398,2398
1225,3402,2394,2394
1226,3405,2383,2383
1227,3408,2365,2365
1228,3411,2342,2342
1229,3413,2314,2314
1230,3416,2284,2284
1231,3419,2252,2252
1232,3422,2221,2221
1233,3425,2192,2192
1234,3427,2165,2165
1235,3430,2141,2141
1236,3433,2120,2120
1237,3436,2103,2103
1238,3438,2089,2089
1239,3441,2078,2078
1240,3444,2069,2069
1241,3447,2063,2063
1242,3450,2058,2058
1243,3452,2055,2055
1244,3455,2052,2052
1245,3458,2048,2048
1246,3461,2048,2048
1247,3463,2048,2048
1248,3466,2048,2048
1249,3469,2048,2048
1250,3472,2048,2048
1251,3475,2048,2048
1252,3477,2048,2048
1253,3480,2048,2048
1254,3483,2048,2048
1255,3486,2048,2048
1256,3488,2048,2048
1257,3491,2048,2048
1258,3494,2048,2048
1259,3497,2048,2048
1260,3500,2048,2048
1261,3502,2048,2048
1262,3505,2048,2048
1263,3508,2048,2048
1264,3511,2048,2048
1265,3513,2048,2048
1266,3516,2048,2048
1267,3519,2048,2048
1268,3522,2048,2048
1269,3525,2048,2048
1270,3527,2048,2048
1271,3530,2048,2048
1272,3533,2048,2048
1273,3536,2048,2048
1274,3538,2048,2048
1275,3541,2049,2049
1276,3544,2049,2049
1277,3547,2049,2049
1278,3550,2050,2050
1279,3552,2051,2051
1280,3555,2051,2051
1281,3558,2053,2053
1282,3561,2054,2054
1283,3563,2056,2056
1284,3566,2058,2058
1285,3569,2060,2060
1286,3572,2063,2063
1287,3575,2067,2067
1288,3577,2070,2070
1289,3580,2075,2075
1290,3583,2080,2080
1291,3586,2085,2085
1292,3588,2091,2091
1293,3591,2097,2097
1294,3594,2103,2103
1295,3597,2109,2109
1296,3600,2115,2115
1297,3602,2120,2120
1298,3605,2125,2125
1299,3608,2130,2130
1300,3611,2133,2133
1301,3613,2136,2136
1302,3616,2137,2137
1303,3619,2138,2138
1304,3622,2137,2137
1305,3625,2136,2136
1306,3627,2133,2133
1307,3630,2130,2130
1308,3633,2125,2125
1309,3636,2120,2120
1310,3638,2115,2115
1311,3641,2109,2109
1312,3644,2103,2103
1313,3647,2097,2097
1314,3650,2091,2091
1315,3652,2085,2085
1316,3655,2080,2080
1317,3658,2075,2075
1318,3661,2070,2070
1319,3663,2067,2067
1320,3666,2063,2063
1321,3669,2060,2060
1322,3672,2058,2058
1323,3675,2056,2056
1324,3677,2054,2054
1325,3680,2053,2053
1326,3683,2051,2051
1327,3686,2051,2051
1328,3688,2050,2050
1329,3691,2049,2049
1330,3694,2049,2049
1331,3697,2048,2048
1332,3700,2048,2048
1333,3702,2048,2048
1334,3705,2048,2048
1335,3708,2048,2048
1336,3711,2048,2048
1337,3713,2048,2048
1338,3716,2048,2048
1339,3719,2048,2048
1340,3722,2048,2048
1341,3725,2048,2048
1342,3727,2048,2048
1343,3730,2048,2048
1344,3733,2048,2048
1345,3736,2048,2048
1346,3738,2048,2048
1347,3741,2048,2048
1348,3744,2048,2048
1349,3747,2048,2048
1350,3750,2048,2048
1351,3752,2048,2048
1352,3755,2048,2048
1353,3758,2048,2048
1354,3761,2048,2048
1355,3763,2048,2048
1356,3766,2048,2048
1357,3769,2048,2048
1358,3772,2048,2048
1359,3775,2048,2048
1360,3777,2048,2048
1361,3780,2048,2048
1362,3783,2048,2048
1363,3786,2048,2048
1364,3788,2048,2048
1365,3791,2048,2048
1366,3794,2048,2048
1367,3797,2048,2048
1368,3800,2048,2048
1369,3802,2048,2048
1370,3805,2048,2048
1371,3808,2048,2048
1372,3811,2048,2048
1373,3813,2048,2048
1374,3816,2048,2048
1375,3819,2048,2048
1376,3822,2048,2048
1377,3825,2048,2048
1378,3827,2048,2048
1379,3830,2048,2048
1380,3833,2048,2048
1381,3836,2048,2048
1382,3838,2048,2048
1383,3841,2048,2048
1384,3844,2048,2048
1385,3847,2048,2048
1386,3850,2048,2048
1387,3852,2048,2048
1388,3855,2048,2048
1389,3858,2048,2048
1390,3861,2048,2048
1391,3863,2048,2048
1392,3866,2048,2048
1393,3869,2048,2048
1394,3872,2048,2048
1395,3875,2048,2048
1396,3877,2048,2048
1397,3880,2048,2048
1398,3883,2048,2048
1399,3886,2048,2048
1400,3888,2048,2048
1401,3891,2048,2048
1402,3894,2048,2048
1403,3897,2048,2048
1404,3900,2048,2048
1405,3902,2048,2048
1406,3905,2048,2048
1407,3908,2048,2048
1408,3911,2048,2048
1409,3913,2048,2048
1410,3916,2048,2048
1411,3919,2048,2048
1412,3922,2048,2048
1413,3925,2048,2048
1414,3927,2048,2048
1415,3930,2048,2048
1416,3933,2048,2048
1417,3936,2048,2048
1418,3938,2048,2048
1419,3941,2048,2048
1420,3944,2048,2048
1421,3947,2048,2048
1422,3950,2048,2048
1423,3952,2048,2048
1424,3955,2048,2048
1425,3958,2048,2048
1426,3961,2048,2048
1427,3963,2048,2048
1428,3966,2048,2048
1429,3969,2048,2048
1430,3972,2048,2048
1431,3975,2048,2048
1432,3977,2048,2048
1433,3980,2048,2048
1434,3983,2048,2048
1435,3986,2048,2048
1436,3988,2048,2048
1437,3991,2048,2048
1438,3994,2048,2048
1439,3997,2048,2048
1440,4000,2050,2050
1441,4002,2051,2051
1442,4005,2052,2052
1443,4008,2054,2054
1444,4011,2057,2057
1445,4013,2060,2060
1446,4016,2064,2064
1447,4019,2069,2069
1448,4022,2074,2074
1449,4025,2080,2080
1450,4027,2086,2086
1451,4030,2091,2091
1452,4033,2096,2096
1453,4036,2100,2100
1454,4038,2102,2102
1455,4041,2103,2103
1456,4044,2102,2102
1457,4047,2100,2100
1458,4050,2096,2096
1459,4052,2091,2091
1460,4055,2086,2086
1461,4058,2080,2080
1462,4061,2074,2074
1463,4063,2069,2069
1464,4066,2064,2064
1465,4069,2060,2060
1466,4072,2057,2057
1467,4075,2054,2054
1468,4077,2052,2052
1469,4080,2051,2051
1470,4083,2050,2050
1471,4086,2049,2049
1472,4088,2049,2049
1473,4091,2048,2048
1474,4094,2048,2048
1475,4097,2048,2048
1476,4100,2048,2048
1477,4102,2048,2048
1478,4105,2048,2048
1479,4108,2048,2048
1480,4111,2048,2048
1481,4113,2048,2048
1482,4116,2048,2048
1483,4119,2048,2048
1484,4122,2048,2048
1485,4125,2048,2048
1486,4127,2048,2048
1487,4130,2048,2048
1488,4133,2048,2048
1489,4136,2048,2048
1490,4138,2048,2048
1491,4141,2051,2051
1492,4144,2052,2052
1493,4147,2055,2055
1494,4150,2058,2058
1495,4152,2063,2063
1496,4155,2069,2069
1497,4158,2078,2078
1498,4161,2089,2089
1499,4163,2103,2103
1500,4166,2120,2120
1501,4169,2141,2141
1502,4172,2165,2165
1503,4175,2192,2192
1504,4177,2221,2221
1505,4180,2252,2252
1506,4183,2284,2284
1507,4186,2314,2314
1508,4188,2342,2342
1509,4191,2365,2365
1510,4194,2383,2383
1511,4197,2394,2394
1512,4200,2398,2398
1513,4202,2394,2394
1514,4205,2383,2383
1515,4208,2365,2365
1516,4211,2342,2342
1517,4213,2314,2314
1518,4216,2284,2284
1519,4219,2252,2252
1520,4222,2221,2221
1521,4225,2192,2192
1522,4227,2165,2165
1523,4230,2141,2141
1524,4233,2120,2120
1525,4236,2103,2103
1526,4238,2089,2089
1527,4241,2078,2078
1528,4244,2069,2069
1529,4247,2063,2063
1530,4250,2058,2058
1531,4252,2055,2055
1532,4255,2052,2052
1533,4258,2048,2048
1534,4261,2048,2048
1535,4263,2048,2048
1536,4266,2048,2048
1537,4269,2048,2048
1538,4272,2048,2048
1539,4275,2048,2048
1540,4277,2048,2048
1541,4280,2048,2048
1542,4283,2048,2048
1543,4286,2048,2048
1544,4288,2048,2048
1545,4291,2048,2048
1546,4294,2048,2048
1547,4297,2048,2048
1548,4300,2048,2048
1549,4302,2048,2048
1550,4305,2048,2048
1551,4308,2048,2048
1552,4311,2048,2048
1553,4313,2048,2048
1554,4316,2048,2048
1555,4319,2048,2048
1556,4322,2048,2048
1557,4325,2048,2048
1558,4327,2048,2048
1559,4330,2048,2048
1560,4333,2048,2048
1561,4336,2048,2048
1562,4338,2048,2048
1563,4341,2049,2049
1564,4344,2049,2049
1565,4347,2049,2049
1566,4350,2050,2050
1567,4352,2051,2051
1568,4355,2051,2051
1569,4358,2053,2053
1570,4361,2054,2054
1571,4363,2056,2056
1572,4366,2058,2058
1573,4369,2060,2060
1574,4372,2063,2063
1575,4375,2067,2067
1576,4377,2070,2070
1577,4380,2075,2075
1578,4383,2080,2080
1579,4386,2085,2085
1580,4388,2091,2091
1581,4391,2097,2097
1582,4394,2103,2103
1583,4397,2109,2109
1584,4400,2115,2115
1585,4402,2120,2120
1586,4405,2125,2125
1587,4408,2130,2130
1588,4411,2133,2133
1589,4413,2136,2136
1590,4416,2137,2137
1591,4419,2138,2138
1592,4422,2137,2137
1593,4425,2136,2136
1594,4427,2133,2133
1595,4430,2130,2130
1596,4433,2125,2125
1597,4436,2120,2120
1598,4438,2115,2115
1599,4441,2109,2109
1600,4444,2103,2103
1601,4447,2097,2097
1602,4450,2091,2091
1603,4452,2085,2085
1604,4455,2080,2080
1605,4458,2075,2075
1606,4461,2070,2070
1607,4463,2067,2067
1608,4466,2063,2063
1609,4469,2060,2060
1610,4472,2058,2058
1611,4475,2056,2056
1612,4477,2054,2054
1613,4480,2053,2053
1614,4483,2051,2051
1615,4486,2051,2051
1616,4488,2050,2050
1617,4491,2049,2049
1618,4494,2049,2049
1619,4497,2048,2048
1620,4500,2048,2048
1621,4502,2048,2048
1622,4505,2048,2048
1623,4508,2048,2048
1624,4511,2048,2048
1625,4513,2048,2048
1626,4516,2048,2048
1627,4519,2048,2048
1628,4522,2048,2048
1629,4525,2048,2048
1630,4527,2048,2048
1631,4530,2048,2048
1632,4533,2048,2048
1633,4536,2048,2048
1634,4538,2048,2048
1635,4541,2048,2048
1636,4544,2048,2048
1637,4547,2048,2048
1638,4550,2048,2048
1639,4552,2048,2048
1640,4555,2048,2048
1641,4558,2048,2048
1642,4561,2048,2048
1643,4563,2048,2048
1644,4566,2048,2048
1645,4569,2048,2048
1646,4572,2048,2048
1647,4575,2048,2048
1648,4577,2048,2048
1649,4580,2048,2048
1650,4583,2048,2048
1651,4586,2048,2048
1652,4588,2048,2048
1653,4591,2048,2048
1654,4594,2048,2048
1655,4597,2048,2048
1656,4600,2048,2048
1657,4602,2048,2048
1658,4605,2048,2048
1659,4608,2048,2048
1660,4611,2048,2048
1661,4613,2048,2048
1662,4616,2048,2048
1663,4619,2048,2048
1664,4622,2048,2048
1665,4625,2048,2048
1666,4627,2048,2048
1667,4630,2048,2048
1668,4633,2048,2048
1669,4636,2048,2048
1670,4638,2048,2048
1671,4641,2048,2048
1672,4644,2048,2048
1673,4647,2048,2048
1674,4650,2048,2048
1675,4652,2048,2048
1676,4655,2048,2048
1677,4658,2048,2048
1678,4661,2048,2048
1679,4663,2048,2048
1680,4666,2048,2048
1681,4669,2048,2048
1682,4672,2048,2048
1683,4675,2048,2048
1684,4677,2048,2048
1685,4680,2048,2048
1686,4683,2048,2048
1687,4686,2048,2048
1688,4688,2048,2048
1689,4691,2048,2048
1690,4694,2048,2048
1691,4697,2048,2048
1692,4700,2048,2048
1693,4702,2048,2048
1694,4705,2048,2048
1695,4708,2048,2048
1696,4711,2048,2048
1697,4713,2048,2048
1698,4716,2048,2048
1699,4719,2048,2048
1700,4722,2048,2048
1701,4725,2048,2048
1702,4727,2048,2048
1703,4730,2048,2048
1704,4733,2048,2048
1705,4736,2048,2048
1706,4738,2048,2048
1707,4741,2048,2048
1708,4744,2048,2048
1709,4747,2048,2048
1710,4750,2048,2048
1711,4752,2048,2048
1712,4755,2048,2048
1713,4758,2048,2048
1714,4761,2048,2048
1715,4763,2048,2048
1716,4766,2048,2048
1717,4769,2048,2048
1718,4772,2048,2048
1719,4775,2048,2048
1720,4777,2048,2048
1721,4780,2048,2048
1722,4783,2048,2048
1723,4786,2048,2048
1724,4788,2048,2048
1725,4791,2048,2048
1726,4794,2048,2048
1727,4797,2048,2048
1728,4800,2048,2048
1729,4802,2048,2048
1730,4805,2048,2048
1731,4808,2048,2048
1732,4811,2048,2048
1733,4813,2048,2048
1734,4816,2048,2048
1735,4819,2048,2048
1736,4822,2048,2048
1737,4825,2048,2048
1738,4827,2048,2048
1739,4830,2048,2048
1740,4833,2048,2048
1741,4836,2048,2048
1742,4838,2048,2048
1743,4841,2048,2048
1744,4844,2048,2048
1745,4847,2048,2048
1746,4850,2048,2048
1747,4852,2048,2048
1748,4855,2048,2048
1749,4858,2048,2048
1750,4861,2054,2054
1751,4863,2055,2055
1752,4866,2057,2057
1753,4869,2058,2058
1754,4872,2060,2060
1755,4875,2063,2063
1756,4877,2066,2066
1757,4880,2069,2069
1758,4883,2073,2073
1759,4886,2077,2077
1760,4888,2082,2082
1761,4891,2087,2087
1762,4894,2094,2094
1763,4897,2101,2101
1764,4900,2109,2109
1765,4902,2118,2118
1766,4905,2128,2128
1767,4908,2139,2139
1768,4911,2151,2151
1769,4913,2165,2165
1770,4916,2179,2179
1771,4919,2195,2195
1772,4922,2212,2212
1773,4925,2231,2231
1774,4927,2251,2251
1775,4930,2272,2272
1776,4933,2294,2294
1777,4936,2317,2317
1778,4938,2342,2342
1779,4941,2367,2367
1780,4944,2394,2394
1781,4947,2421,2421
1782,4950,2449,2449
1783,4952,2477,2477
1784,4955,2505,2505
1785,4958,2533,2533
1786,4961,2561,2561
1787,4963,2589,2589
1788,4966,2616,2616
1789,4969,2641,2641
1790,4972,2666,2666
1791,4975,2689,2689
1792,4977,2711,2711
1793,4980,2730,2730
1794,4983,2748,2748
1795,4986,2763,2763
1796,4988,2775,2775
1797,4991,2785,2785
1798,4994,2792,2792
1799,4997,2797,2797
1800,5000,2798,2798
1801,5002,2797,2797
1802,5005,2792,2792
1803,5008,2785,2785
1804,5011,2775,2775
1805,5013,2763,2763
1806,5016,2748,2748
1807,5019,2730,2730
1808,5022,2711,2711
1809,5025,2689,2689
1810,5027,2666,2666
1811,5030,2641,2641
1812,5033,2616,2616
1813,5036,2589,2589
1814,5038,2561,2561
1815,5041,2533,2533
1816,5044,2505,2505
1817,5047,2477,2477
1818,5050,2449,2449
1819,5052,2421,2421
1820,5055,2394,2394
1821,5058,2367,2367
1822,5061,2342,2342
1823,5063,2317,2317
1824,5066,2294,2294
1825,5069,2272,2272
1826,5072,2251,2251
1827,5075,2231,2231
1828,5077,2212,2212
1829,5080,2195,2195
1830,5083,2179,2179
1831,5086,2165,2165
1832,5088,2151,2151
1833,5091,2139,2139
1834,5094,2128,2128
1835,5097,2118,2118
1836,5100,2109,2109
1837,5102,2101,2101
1838,5105,2094,2094
1839,5108,2087,2087
1840,5111,2082,2082
1841,5113,2077,2077
1842,5116,2073,2073
1843,5119,2069,2069
1844,5122,2066,2066
1845,5125,2063,2063
1846,5127,2060,2060
1847,5130,2058,2058
1848,5133,2048,2048
1849,5136,2048,2048
1850,5138,2048,2048
1851,5141,2048,2048
1852,5144,2048,2048
1853,5147,2048,2048
1854,5150,2048,2048
1855,5152,2048,2048
1856,5155,2048,2048
1857,5158,2048,2048
1858,5161,2048,2048
1859,5163,2048,2048
1860,5166,2048,2048
1861,5169,2048,2048
1862,5172,2048,2048
1863,5175,2048,2048
1864,5177,2048,2048
1865,5180,2048,2048
1866,5183,2048,2048
1867,5186,2048,2048
1868,5188,2048,2048
1869,5191,2048,2048
1870,5194,2054,2054
1871,5197,2055,2055
1872,5200,2057,2057
1873,5202,2058,2058
1874,5205,2060,2060
1875,5208,2063,2063
1876,5211,2066,2066
1877,5213,2069,2069
1878,5216,2073,2073
1879,5219,2077,2077
1880,5222,2082,2082
1881,5225,2087,2087
1882,5227,2094,2094
1883,5230,2101,2101
1884,5233,2109,2109
1885,5236,2118,2118
1886,5238,2128,2128
1887,5241,2139,2139
1888,5244,2151,2151
1889,5247,2165,2165
1890,5250,2179,2179
1891,5252,2195,2195
1892,5255,2212,2212
1893,5258,2231,2231
1894,5261,2251,2251
1895,5263,2272,2272
1896,5266,2294,2294
1897,5269,2317,2317
1898,5272,2342,2342
1899,5275,2367,2367
1900,5277,2394,2394
1901,5280,2421,2421
1902,5283,2449,2449
1903,5286,2477,2477
1904,5288,2505,2505
1905,5291,2533,2533
1906,5294,2561,2561
1907,5297,2589,2589
1908,5300,2616,2616
1909,5302,2641,2641
1910,5305,2666,2666
1911,5308,2689,2689
1912,5311,2711,2711
1913,5313,2730,2730
1914,5316,2748,2748
1915,5319,2763,2763
1916,5322,2775,2775
1917,5325,2785,2785
1918,5327,2792,2792
1919,5330,2797,2797
1920,5333,2798,2798
1921,5336,2797,2797
1922,5338,2792,2792
1923,5341,2785,2785
1924,5344,2775,2775
1925,5347,2763,2763
1926,5350,2748,2748
1927,5352,2730,2730
1928,5355,2711,2711
1929,5358,2689,2689
1930,5361,2666,2666
1931,5363,2641,2641
1932,5366,2616,2616
1933,5369,2589,2589
1934,5372,2561,2561
1935,5375,2533,2533
1936,5377,2505,2505
1937,5380,2477,2477
1938,5383,2449,2449
1939,5386,2421,2421
1940,5388,2394,2394
1941,5391,2367,2367
1942,5394,2342,2342
1943,5397,2317,2317
1944,5400,2294,2294
1945,5402,2272,2272
1946,5405,2251,2251
1947,5408,2231,2231
1948,5411,2212,2212
1949,5413,2195,2195
1950,5416,2179,2179
1951,5419,2165,2165
1952,5422,2151,2151
1953,5425,2139,2139
1954,5427,2128,2128
1955,5430,2118,2118
1956,5433,2048,2048
1957,5436,2048,2048
1958,5438,2048,2048
1959,5441,2048,2048
1960,5444,2048,2048
1961,5447,2048,2048
1962,5450,2048,2048
1963,5452,2048,2048
1964,5455,2048,2048
1965,5458,2048,2048
1966,5461,2048,2048
1967,5463,2048,2048
1968,5466,2048,2048
1969,5469,2048,2048
1970,5472,2048,2048
1971,5475,2048,2048
1972,5477,2048,2048
1973,5480,2048,2048
1974,5483,2048,2048
1975,5486,2048,2048
1976,5488,2048,2048
1977,5491,2048,2048
1978,5494,2054,2054
1979,5497,2055,2055
1980,5500,2057,2057
1981,5502,2058,2058
1982,5505,2060,2060
1983,5508,2063,2063
1984,5511,2066,2066
1985,5513,2069,2069
1986,5516,2073,2073
1987,5519,2077,2077
1988,5522,2082,2082
1989,5525,2087,2087
1990,5527,2094,2094
1991,5530,2101,2101
1992,5533,2109,2109
1993,5536,2118,2118
1994,5538,2128,2128
1995,5541,2139,2139
1996,5544,2151,2151
1997,5547,2165,2165
1998,5550,2179,2179
1999,5552,2195,2195
2000,5555,2212,2212
2001,5558,2231,2231
2002,5561,2251,2251
2003,5563,2272,2272
2004,5566,2294,2294
2005,5569,2317,2317
2006,5572,2342,2342
2007,5575,2367,2367
2008,5577,2394,2394
2009,5580,2421,2421
2010,5583,2449,2449
2011,5586,2477,2477
2012,5588,2505,2505
2013,5591,2533,2533
2014,5594,2561,2561
2015,5597,2589,2589
2016,5600,2616,2616
2017,5602,2641,2641
2018,5605,2666,2666
2019,5608,2689,2689
2020,5611,2711,2711
2021,5613,2730,2730
2022,5616,2748,2748
2023,5619,2763,2763
2024,5622,2775,2775
2025,5625,2785,2785
2026,5627,2792,2792
2027,5630,2797,2797
2028,5633,2798,2798
2029,5636,2797,2797
2030,5638,2792,2792
2031,5641,2785,2785
2032,5644,2775,2775
2033,5647,2763,2763
2034,5650,2748,2748
2035,5652,2730,2730
2036,5655,2711,2711
2037,5658,2689,2689
2038,5661,2666,2666
2039,5663,2641,2641
2040,5666,2616,2616
2041,5669,2589,2589
2042,5672,2561,2561
2043,5675,2533,2533
2044,5677,2505,2505
2045,5680,2477,2477
2046,5683,2449,2449
2047,5686,2421,2421
2048,5688,2394,2394
2049,5691,2367,2367
2050,5694,2342,2342
2051,5697,2317,2317
2052,5700,2294,2294
2053,5702,2272,2272
2054,5705,2251,2251
2055,5708,2231,2231
2056,5711,2212,2212
2057,5713,2195,2195
2058,5716,2179,2179
2059,5719,2165,2165
2060,5722,2151,2151
2061,5725,2139,2139
2062,5727,2128,2128
2063,5730,2118,2118
2064,5733,2109,2109
2065,5736,2101,2101
2066,5738,2094,2094
2067,5741,2087,2087
2068,5744,2082,2082
2069,5747,2077,2077
2070,5750,2073,2073
2071,5752,2069,2069
2072,5755,2066,2066
2073,5758,2063,2063
2074,5761,2060,2060
2075,5763,2058,2058
2076,5766,2048,2048
2077,5769,2048,2048
2078,5772,2048,2048
2079,5775,2048,2048
2080,5777,2048,2048
2081,5780,2048,2048
2082,5783,2048,2048
2083,5786,2048,2048
2084,5788,2048,2048
2085,5791,2048,2048
2086,5794,2048,2048
2087,5797,2048,2048
2088,5800,2048,2048
2089,5802,2048,2048
2090,5805,2048,2048
2091,5808,2048,2048
2092,5811,2048,2048
2093,5813,2048,2048
2094,5816,2048,2048
2095,5819,2048,2048
2096,5822,2048,2048
2097,5825,2048,2048
2098,5827,2054,2054
2099,5830,2055,2055
2100,5833,2057,2057
2101,5836,2058,2058
2102,5838,2060,2060
2103,5841,2063,2063
2104,5844,2066,2066
2105,5847,2069,2069
2106,5850,2073,2073
2107,5852,2077,2077
2108,5855,2082,2082
2109,5858,2087,2087
2110,5861,2094,2094
2111,5863,2101,2101
2112,5866,2109,2109
2113,5869,2118,2118
2114,5872,2128,2128
2115,5875,2139,2139
2116,5877,2151,2151
2117,5880,2165,2165
2118,5883,2179,2179
2119,5886,2195,2195
2120,5888,2212,2212
2121,5891,2231,2231
2122,5894,2251,2251
2123,5897,2272,2272
2124,5900,2294,2294
2125,5902,2317,2317
2126,5905,2342,2342
2127,5908,2367,2367
2128,5911,2394,2394
2129,5913,2421,2421
2130,5916,2449,2449
2131,5919,2477,2477
2132,5922,2505,2505
2133,5925,2533,2533
2134,5927,2561,2561
2135,5930,2589,2589
2136,5933,2616,2616
2137,5936,2641,2641
2138,5938,2666,2666
2139,5941,2689,2689
2140,5944,2711,2711
2141,5947,2730,2730
2142,5950,2748,2748
2143,5952,2763,2763
2144,5955,2775,2775
2145,5958,2785,2785
2146,5961,2792,2792
2147,5963,2797,2797
2148,5966,2798,2798
2149,5969,2797,2797
2150,5972,2792,2792
2151,5975,2785,2785
2152,5977,2775,2775
2153,5980,2763,2763
2154,5983,2748,2748
2155,5986,2730,2730
2156,5988,2711,2711
2157,5991,2689,2689
2158,5994,2666,2666
2159,5997,2641,2641
2160,6000,2616,2616
2161,6002,2589,2589
2162,6005,2561,2561
2163,6008,2533,2533
2164,6011,2505,2505
2165,6013,2477,2477
2166,6016,2449,2449
2167,6019,2421,2421
2168,6022,2394,2394
2169,6025,2367,2367
2170,6027,2342,2342
2171,6030,2317,2317
2172,6033,2294,2294
2173,6036,2272,2272
2174,6038,2251,2251
2175,6041,2231,2231
2176,6044,2212,2212
2177,6047,2195,2195
2178,6050,2179,2179
2179,6052,2165,2165
2180,6055,2151,2151
2181,6058,2139,2139
2182,6061,2128,2128
2183,6063,2118,2118
2184,6066,2109,2109
2185,6069,2101,2101
2186,6072,2094,2094
2187,6075,2087,2087
2188,6077,2082,2082
2189,6080,2077,2077
2190,6083,2073,2073
2191,6086,2069,2069
2192,6088,2066,2066
2193,6091,2063,2063
2194,6094,2060,2060
2195,6097,2058,2058
2196,6100,2057,2057
2197,6102,2055,2055
2198,6105,2048,2048
2199,6108,2047,2047
2200,6111,2047,2047
2201,6113,2046,2046
2202,6116,2045,2045
2203,6119,2045,2045
2204,6122,2043,2043
2205,6125,2042,2042
2206,6127,2040,2040
2207,6130,2038,2038
2208,6133,2035,2035
2209,6136,2032,2032
2210,6138,2028,2028
2211,6141,2048,2048
2212,6144,2048,2048
2213,6147,2048,2048
2214,6150,2048,2048
2215,6152,2048,2048
2216,6155,2048,2048
2217,6158,2048,2048
2218,6161,2048,2048
2219,6163,2048,2048
2220,6166,2048,2048
2221,6169,2048,2048
2222,6172,2048,2048
2223,6175,2048,2048
2224,6177,2048,2048
2225,6180,2048,2048
2226,6183,2048,2048
2227,6186,2048,2048
2228,6188,2048,2048
2229,6191,2048,2048
2230,6194,2048,2048
2231,6197,2048,2048
2232,6200,2048,2048
2233,6202,2054,2054
2234,6205,2055,2055
2235,6208,2057,2057
2236,6211,2058,2058
2237,6213,2060,2060
2238,6216,2063,2063
2239,6219,2066,2066
2240,6222,2069,2069
2241,6225,2073,2073
2242,6227,2077,2077
2243,6230,2082,2082
2244,6233,2087,2087
2245,6236,2094,2094
2246,6238,2101,2101
2247,6241,2109,2109
2248,6244,2118,2118
2249,6247,2128,2128
2250,6250,2139,2139
2251,6252,2151,2151
2252,6255,2165,2165
2253,6258,2179,2179
2254,6261,2195,2195
2255,6263,2212,2212
2256,6266,2231,2231
2257,6269,2251,2251
2258,6272,2272,2272
2259,6275,2294,2294
2260,6277,2317,2317
2261,6280,2342,2342
2262,6283,2367,2367
2263,6286,2394,2394
2264,6288,2421,2421
2265,6291,2449,2449
2266,6294,2477,2477
2267,6297,2505,2505
2268,6300,2533,2533
2269,6302,2561,2561
2270,6305,2589,2589
2271,6308,2616,2616
2272,6311,2641,2641
2273,6313,2666,2666
2274,6316,2689,2689
2275,6319,2711,2711
2276,6322,2730,2730
2277,6325,2748,2748
2278,6327,2763,2763
2279,6330,2775,2775
2280,6333,2785,2785
2281,6336,2792,2792
2282,6338,2797,2797
2283,6341,2798,2798
2284,6344,2797,2797
2285,6347,2792,2792
2286,6350,2785,2785
2287,6352,2775,2775
2288,6355,2763,2763
2289,6358,2748,2748
2290,6361,2730,2730
2291,6363,2711,2711
2292,6366,2689,2689
2293,6369,2666,2666
2294,6372,2641,2641
2295,6375,2616,2616
2296,6377,2589,2589
2297,6380,2561,2561
2298,6383,2533,2533
2299,6386,2505,2505
2300,6388,2477,2477
2301,6391,2449,2449
2302,6394,2421,2421
2303,6397,2394,2394
2304,6400,2367,2367
2305,6402,2342,2342
2306,6405,2317,2317
2307,6408,2294,2294
2308,6411,2272,2272
2309,6413,2251,2251
2310,6416,2231,2231
2311,6419,2212,2212
2312,6422,2195,2195
2313,6425,2179,2179
2314,6427,2165,2165
2315,6430,2151,2151
2316,6433,2139,2139
2317,6436,2128,2128
2318,6438,2118,2118
2319,6441,2048,2048
2320,6444,2048,2048
2321,6447,2048,2048
2322,6450,2048,2048
2323,6452,2048,2048
2324,6455,2048,2048
2325,6458,2048,2048
2326,6461,2048,2048
2327,6463,2048,2048
2328,6466,2048,2048
2329,6469,2048,2048
2330,6472,2048,2048
2331,6475,2048,2048
2332,6477,2048,2048
2333,6480,2048,2048
2334,6483,2048,2048
2335,6486,2048,2048
2336,6488,2048,2048
2337,6491,2048,2048
2338,6494,2048,2048
2339,6497,2048,2048
2340,6500,2048,2048
2341,6502,2054,2054
2342,6505,2055,2055
2343,6508,2057,2057
2344,6511,2058,2058
2345,6513,2060,2060
2346,6516,2063,2063
2347,6519,2066,2066
2348,6522,2069,2069
2349,6525,2073,2073
2350,6527,2077,2077
2351,6530,2082,2082
2352,6533,2087,2087
2353,6536,2094,2094
2354,6538,2101,2101
2355,6541,2109,2109
2356,6544,2118,2118
2357,6547,2128,2128
2358,6550,2139,2139
2359,6552,2151,2151
2360,6555,2165,2165
2361,6558,2179,2179
2362,6561,2195,2195
2363,6563,2212,2212
2364,6566,2231,2231
2365,6569,2251,2251
2366,6572,2272,2272
2367,6575,2294,2294
2368,6577,2317,2317
2369,6580,2342,2342
2370,6583,2367,2367
2371,6586,2394,2394
2372,6588,2421,2421
2373,6591,2449,2449
2374,6594,2477,2477
2375,6597,2505,2505
2376,6600,2533,2533
2377,6602,2561,2561
2378,6605,2589,2589
2379,6608,2616,2616
2380,6611,2641,2641
2381,6613,2666,2666
2382,6616,2689,2689
2383,6619,2711,2711
2384,6622,2730,2730
2385,6625,2748,2748
2386,6627,2763,2763
2387,6630,2775,2775
2388,6633,2785,2785
2389,6636,2792,2792
2390,6638,2797,2797
2391,6641,2798,2798
2392,6644,2797,2797
2393,6647,2792,2792
2394,6650,2785,2785
2395,6652,2775,2775
2396,6655,2763,2763
2397,6658,2748,2748
2398,6661,2730,2730
2399,6663,2711,2711
2400,6666,2689,2689
2401,6669,2666,2666
2402,6672,2641,2641
2403,6675,2616,2616
2404,6677,2589,2589
2405,6680,2561,2561
2406,6683,2533,2533
2407,6686,2505,2505
2408,6688,2477,2477
2409,6691,2449,2449
2410,6694,2421,2421
2411,6697,2394,2394
2412,6700,2367,2367
2413,6702,2342,2342
2414,6705,2317,2317
2415,6708,2294,2294
2416,6711,2272,2272
2417,6713,2251,2251
2418,6716,2231,2231
2419,6719,2212,2212
2420,6722,2195,2195
2421,6725,2179,2179
2422,6727,2165,2165
2423,6730,2151,2151
2424,6733,2139,2139
2425,6736,2128,2128
2426,6738,2118,2118
2427,6741,2109,2109
2428,6744,2101,2101
2429,6747,2094,2094
2430,6750,2087,2087
2431,6752,2082,2082
2432,6755,2077,2077
2433,6758,2073,2073
2434,6761,2069,2069
2435,6763,2066,2066
2436,6766,2063,2063
2437,6769,2060,2060
2438,6772,2058,2058
2439,6775,2048,2048
2440,6777,2048,2048
2441,6780,2048,2048
2442,6783,2048,2048
2443,6786,2048,2048
2444,6788,2048,2048
2445,6791,2048,2048
2446,6794,2048,2048
2447,6797,2048,2048
2448,6800,2048,2048
2449,6802,2048,2048
2450,6805,2048,2048
2451,6808,2048,2048
2452,6811,2048,2048
2453,6813,2048,2048
2454,6816,2048,2048
2455,6819,2048,2048
2456,6822,2048,2048
2457,6825,2048,2048
2458,6827,2048,2048
2459,6830,2048,2048
2460,6833,2048,2048
2461,6836,2054,2054
2462,6838,2055,2055
2463,6841,2057,2057
2464,6844,2058,2058
2465,6847,2060,2060
2466,6850,2063,2063
2467,6852,2066,2066
2468,6855,2069,2069
2469,6858,2073,2073
2470,6861,2077,2077
2471,6863,2082,2082
2472,6866,2087,2087
2473,6869,2094,2094
2474,6872,2101,2101
2475,6875,2109,2109
2476,6877,2118,2118
2477,6880,2128,2128
2478,6883,2139,2139
2479,6886,2151,2151
2480,6888,2165,2165
2481,6891,2179,2179
2482,6894,2195,2195
2483,6897,2212,2212
2484,6900,2231,2231
2485,6902,2251,2251
2486,6905,2272,2272
2487,6908,2294,2294
2488,6911,2317,2317
2489,6913,2342,2342
2490,6916,2367,2367
2491,6919,2394,2394
2492,6922,2421,2421
2493,6925,2449,2449
2494,6927,2477,2477
2495,6930,2505,2505
2496,6933,2533,2533
2497,6936,2561,2561
2498,6938,2589,2589
2499,6941,2616,2616
2500,6944,2641,2641
2501,6947,2666,2666
2502,6950,2689,2689
2503,6952,2711,2711
2504,6955,2730,2730
2505,6958,2748,2748
2506,6961,2763,2763
2507,6963,2775,2775
2508,6966,2785,2785
2509,6969,2792,2792
2510,6972,2797,2797
2511,6975,2798,2798
2512,6977,2797,2797
2513,6980,2792,2792
2514,6983,2785,2785
2515,6986,2775,2775
2516,6988,2763,2763
2517,6991,2748,2748
2518,6994,2730,2730
2519,6997,2711,2711
2520,7000,2689,2689
2521,7002,2666,2666
2522,7005,2641,2641
2523,7008,2616,2616
2524,7011,2589,2589
2525,7013,2561,2561
2526,7016,2533,2533
2527,7019,2505,2505
2528,7022,2477,2477
2529,7025,2449,2449
2530,7027,2421,2421
2531,7030,2394,2394
2532,7033,2367,2367
2533,7036,2342,2342
2534,7038,2317,2317
2535,7041,2294,2294
2536,7044,2272,2272
2537,7047,2251,2251
2538,7050,2231,2231
2539,7052,2212,2212
2540,7055,2195,2195
2541,7058,2179,2179
2542,7061,2165,2165
2543,7063,2151,2151
2544,7066,2139,2139
2545,7069,2128,2128
2546,7072,2118,2118
2547,7075,2109,2109
2548,7077,2101,2101
2549,7080,2094,2094
2550,7083,2087,2087
2551,7086,2082,2082
2552,7088,2077,2077
2553,7091,2073,2073
2554,7094,2069,2069
2555,7097,2066,2066
2556,7100,2063,2063
2557,7102,2060,2060
2558,7105,2058,2058
2559,7108,2057,2057
2560,7111,2055,2055
2561,7113,2048,2048
2562,7116,2047,2047
2563,7119,2047,2047
2564,7122,2046,2046
2565,7125,2045,2045
2566,7127,2045,2045
2567,7130,2043,2043
2568,7133,2042,2042
2569,7136,2040,2040
2570,7138,2038,2038
2571,7141,2035,2035
2572,7144,2032,2032
2573,7147,2028,2028
2574,7150,2048,2048
2575,7152,2048,2048
2576,7155,2048,2048
2577,7158,2048,2048
2578,7161,2048,2048
2579,7163,2048,2048
2580,7166,2048,2048
2581,7169,2048,2048
2582,7172,2048,2048
2583,7175,2048,2048
2584,7177,2048,2048
2585,7180,2048,2048
2586,7183,2048,2048
2587,7186,2048,2048
2588,7188,2048,2048
2589,7191,2048,2048
2590,7194,2048,2048
2591,7197,2048,2048
2592,7200,2048,2048
2593,7202,2048,2048
2594,7205,2048,2048
2595,7208,2048,2048
2596,7211,2054,2054
2597,7213,2055,2055
2598,7216,2057,2057
2599,7219,2058,2058
2600,7222,2060,2060
2601,7225,2063,2063
2602,7227,2066,2066
2603,7230,2069,2069
2604,7233,2073,2073
2605,7236,2077,2077
2606,7238,2082,2082
2607,7241,2087,2087
2608,7244,2094,2094
2609,7247,2101,2101
2610,7250,2109,2109
2611,7252,2118,2118
2612,7255,2128,2128
2613,7258,2139,2139
2614,7261,2151,2151
2615,7263,2165,2165
2616,7266,2179,2179
2617,7269,2195,2195
2618,7272,2212,2212
2619,7275,2231,2231
2620,7277,2251,2251
2621,7280,2272,2272
2622,7283,2294,2294
2623,7286,2317,2317
2624,7288,2342,2342
2625,7291,2367,2367
2626,7294,2394,2394
2627,7297,2421,2421
2628,7300,2449,2449
2629,7302,2477,2477
2630,7305,2505,2505
2631,7308,2533,2533
2632,7311,2561,2561
2633,7313,2589,2589
2634,7316,2616,2616
2635,7319,2641,2641
2636,7322,2666,2666
2637,7325,2689,2689
2638,7327,2711,2711
2639,7330,2730,2730
2640,7333,2748,2748
2641,7336,2763,2763
2642,7338,2775,2775
2643,7341,2785,2785
2644,7344,2792,2792
2645,7347,2797,2797
2646,7350,2048,2048
2647,7352,2048,2048
2648,7355,2048,2048
2649,7358,2048,2048
2650,7361,2048,2048
2651,7363,2048,2048
2652,7366,2048,2048
2653,7369,2048,2048
2654,7372,2048,2048
2655,7375,2048,2048
2656,7377,2048,2048
2657,7380,2048,2048
2658,7383,2048,2048
2659,7386,2048,2048
2660,7388,2048,2048
2661,7391,2048,2048
2662,7394,2048,2048
2663,7397,2048,2048
2664,7400,2048,2048
2665,7402,2048,2048
2666,7405,2048,2048
2667,7408,2048,2048
2668,7411,2054,2054
2669,7413,2055,2055
2670,7416,2057,2057
2671,7419,2058,2058
2672,7422,2060,2060
2673,7425,2063,2063
2674,7427,2066,2066
2675,7430,2069,2069
2676,7433,2073,2073
2677,7436,2077,2077
2678,7438,2082,2082
2679,7441,2087,2087
2680,7444,2094,2094
2681,7447,2101,2101
2682,7450,2109,2109
2683,7452,2118,2118
2684,7455,2128,2128
2685,7458,2139,2139
2686,7461,2151,2151
2687,7463,2165,2165
2688,7466,2179,2179
2689,7469,2195,2195
2690,7472,2212,2212
2691,7475,2231,2231
2692,7477,2251,2251
2693,7480,2272,2272
2694,7483,2294,2294
2695,7486,2317,2317
2696,7488,2342,2342
2697,7491,2367,2367
2698,7494,2394,2394
2699,7497,2421,2421
2700,7500,2449,2449
2701,7502,2477,2477
2702,7505,2505,2505
2703,7508,2533,2533
2704,7511,2561,2561
2705,7513,2589,2589
2706,7516,2616,2616
2707,7519,2641,2641
2708,7522,2666,2666
2709,7525,2689,2689
2710,7527,2711,2711
2711,7530,2730,2730
2712,7533,2748,2748
2713,7536,2763,2763
2714,7538,2775,2775
2715,7541,2785,2785
2716,7544,2792,2792
2717,7547,2797,2797
2718,7550,2798,2798
2719,7552,2797,2797
2720,7555,2792,2792
2721,7558,2785,2785
2722,7561,2775,2775
2723,7563,2763,2763
2724,7566,2748,2748
2725,7569,2730,2730
2726,7572,2711,2711
2727,7575,2689,2689
2728,7577,2666,2666
2729,7580,2641,2641
2730,7583,2616,2616
2731,7586,2589,2589
2732,7588,2561,2561
2733,7591,2533,2533
2734,7594,2505,2505
2735,7597,2477,2477
2736,7600,2449,2449
2737,7602,2421,2421
2738,7605,2394,2394
2739,7608,2367,2367
2740,7611,2342,2342
2741,7613,2317,2317
2742,7616,2294,2294
2743,7619,2272,2272
2744,7622,2251,2251
2745,7625,2231,2231
2746,7627,2212,2212
2747,7630,2195,2195
2748,7633,2179,2179
2749,7636,2165,2165
2750,7638,2151,2151
2751,7641,2139,2139
2752,7644,2128,2128
2753,7647,2118,2118
2754,7650,2109,2109
2755,7652,2101,2101
2756,7655,2094,2094
2757,7658,2087,2087
2758,7661,2082,2082
2759,7663,2077,2077
2760,7666,2073,2073
2761,7669,2069,2069
2762,7672,2066,2066
2763,7675,2063,2063
2764,7677,2060,2060
2765,7680,2058,2058
2766,7683,2057,2057
2767,7686,2055,2055
2768,7688,2048,2048
2769,7691,2047,2047
2770,7694,2047,2047
2771,7697,2046,2046
2772,7700,2045,2045
2773,7702,2045,2045
2774,7705,2043,2043
2775,7708,2042,2042
2776,7711,2040,2040
2777,7713,2038,2038
2778,7716,2035,2035
2779,7719,2032,2032
2780,7722,2028,2028
2781,7725,2048,2048
2782,7727,2048,2048
2783,7730,2048,2048
2784,7733,2048,2048
2785,7736,2048,2048
2786,7738,2048,2048
2787,7741,2048,2048
2788,7744,2048,2048
2789,7747,2048,2048
2790,7750,2048,2048
2791,7752,2048,2048
2792,7755,2048,2048
2793,7758,2048,2048
2794,7761,2048,2048
2795,7763,2048,2048
2796,7766,2048,2048
2797,7769,2048,2048
2798,7772,2048,2048
2799,7775,2048,2048
2800,7777,2048,2048
2801,7780,2048,2048
2802,7783,2048,2048
2803,7786,2054,2054
2804,7788,2055,2055
2805,7791,2057,2057
2806,7794,2058,2058
2807,7797,2060,2060
2808,7800,2063,2063
2809,7802,2066,2066
2810,7805,2069,2069
2811,7808,2073,2073
2812,7811,2077,2077
2813,7813,2082,2082
2814,7816,2087,2087
2815,7819,2094,2094
2816,7822,2101,2101
2817,7825,2109,2109
2818,7827,2118,2118
2819,7830,2128,2128
2820,7833,2139,2139
2821,7836,2151,2151
2822,7838,2165,2165
2823,7841,2179,2179
2824,7844,2195,2195
2825,7847,2212,2212
2826,7850,2231,2231
2827,7852,2251,2251
2828,7855,2272,2272
2829,7858,2294,2294
2830,7861,2317,2317
2831,7863,2342,2342
2832,7866,2367,2367
2833,7869,2394,2394
2834,7872,2421,2421
2835,7875,2449,2449
2836,7877,2477,2477
2837,7880,2505,2505
2838,7883,2533,2533
2839,7886,2561,2561
2840,7888,2589,2589
2841,7891,2616,2616
2842,7894,2641,2641
2843,7897,2666,2666
2844,7900,2689,2689
2845,7902,2711,2711
2846,7905,2730,2730
2847,7908,2748,2748
2848,7911,2763,2763
2849,7913,2775,2775
2850,7916,2785,2785
2851,7919,2792,2792
2852,7922,2797,2797
2853,7925,2798,2798
2854,7927,2797,2797
2855,7930,2792,2792
2856,7933,2785,2785
2857,7936,2775,2775
2858,7938,2048,2048
2859,7941,2048,2048
2860,7944,2048,2048
2861,7947,2048,2048
2862,7950,2048,2048
2863,7952,2048,2048
2864,7955,2048,2048
2865,7958,2048,2048
2866,7961,2048,2048
2867,7963,2048,2048
2868,7966,2048,2048
2869,7969,2048,2048
2870,7972,2048,2048
2871,7975,2048,2048
2872,7977,2048,2048
2873,7980,2048,2048
2874,7983,2048,2048
2875,7986,2048,2048
2876,7988,2048,2048
2877,7991,2048,2048
2878,7994,2048,2048
2879,7997,2048,2048
2880,8000,2054,2054
2881,8002,2055,2055
2882,8005,2057,2057
2883,8008,2058,2058
2884,8011,2060,2060
2885,8013,2063,2063
2886,8016,2066,2066
2887,8019,2069,2069
2888,8022,2073,2073
2889,8025,2077,2077
2890,8027,2082,2082
2891,8030,2087,2087
2892,8033,2094,2094
2893,8036,2101,2101
2894,8038,2109,2109
2895,8041,2118,2118
2896,8044,2128,2128
2897,8047,2139,2139
2898,8050,2151,2151
2899,8052,2165,2165
2900,8055,2179,2179
2901,8058,2195,2195
2902,8061,2212,2212
2903,8063,2231,2231
2904,8066,2251,2251
2905,8069,2272,2272
2906,8072,2294,2294
2907,8075,2317,2317
2908,8077,2342,2342
2909,8080,2367,2367
2910,8083,2394,2394
2911,8086,2421,2421
2912,8088,2449,2449
2913,8091,2477,2477
2914,8094,2505,2505
2915,8097,2533,2533
2916,8100,2561,2561
2917,8102,2589,2589
2918,8105,2616,2616
2919,8108,2641,2641
2920,8111,2666,2666
2921,8113,2689,2689
2922,8116,2711,2711
2923,8119,2730,2730
2924,8122,2748,2748
2925,8125,2763,2763
2926,8127,2775,2775
2927,8130,2785,2785
2928,8133,2792,2792
2929,8136,2797,2797
2930,8138,2048,2048
2931,8141,2048,2048
2932,8144,2048,2048
2933,8147,2048,2048
2934,8150,2048,2048
2935,8152,2048,2048
2936,8155,2048,2048
2937,8158,2048,2048
2938,8161,2048,2048
2939,8163,2048,2048
2940,8166,2048,2048
2941,8169,2048,2048
2942,8172,2048,2048
2943,8175,2048,2048
2944,8177,2048,2048
2945,8180,2048,2048
2946,8183,2048,2048
2947,8186,2048,2048
2948,8188,2048,2048
2949,8191,2048,2048
2950,8194,2048,2048
2951,8197,2048,2048
2952,8200,2054,2054
2953,8202,2055,2055
2954,8205,2057,2057
2955,8208,2058,2058
2956,8211,2060,2060
2957,8213,2063,2063
2958,8216,2066,2066
2959,8219,2069,2069
2960,8222,2073,2073
2961,8225,2077,2077
2962,8227,2082,2082
2963,8230,2087,2087
2964,8233,2094,2094
2965,8236,2101,2101
2966,8238,2109,2109
2967,8241,2118,2118
2968,8244,2128,2128
2969,8247,2139,2139
2970,8250,2151,2151
2971,8252,2165,2165
2972,8255,2179,2179
2973,8258,2195,2195
2974,8261,2212,2212
2975,8263,2231,2231
2976,8266,2251,2251
2977,8269,2272,2272
2978,8272,2294,2294
2979,8275,2317,2317
2980,8277,2342,2342
2981,8280,2367,2367
2982,8283,2394,2394
2983,8286,2421,2421
2984,8288,2449,2449
2985,8291,2477,2477
2986,8294,2505,2505
2987,8297,2533,2533
2988,8300,2561,2561
2989,8302,2589,2589
2990,8305,2616,2616
2991,8308,2641,2641
2992,8311,2666,2666
2993,8313,2689,2689
2994,8316,2711,2711
2995,8319,2730,2730
2996,8322,2748,2748
2997,8325,2763,2763
2998,8327,2775,2775
2999,8330,2785,2785
3000,8333,2792,2792
3001,8336,2797,2797
3002,8338,2048,2048
3003,8341,2048,2048
3004,8344,2048,2048
3005,8347,2048,2048
3006,8350,2048,2048
3007,8352,2048,2048
3008,8355,2048,2048
3009,8358,2048,2048
3010,8361,2048,2048
3011,8363,2048,2048
3012,8366,2048,2048
3013,8369,2048,2048
3014,8372,2048,2048
3015,8375,2048,2048
3016,8377,2048,2048
3017,8380,2048,2048
3018,8383,2048,2048
3019,8386,2048,2048
3020,8388,2048,2048
3021,8391,2048,2048
3022,8394,2048,2048
3023,8397,2048,2048
3024,8400,2054,2054
3025,8402,2055,2055
3026,8405,2057,2057
3027,8408,2058,2058
3028,8411,2060,2060
3029,8413,2063,2063
3030,8416,2066,2066
3031,8419,2069,2069
3032,8422,2073,2073
3033,8425,2077,2077
3034,8427,2082,2082
3035,8430,2087,2087
3036,8433,2094,2094
3037,8436,2101,2101
3038,8438,2109,2109
3039,8441,2118,2118
3040,8444,2128,2128
3041,8447,2139,2139
3042,8450,2151,2151
3043,8452,2165,2165
3044,8455,2179,2179
3045,8458,2195,2195
3046,8461,2212,2212
3047,8463,2231,2231
3048,8466,2251,2251
3049,8469,2272,2272
3050,8472,2294,2294
3051,8475,2317,2317
3052,8477,2342,2342
3053,8480,2367,2367
3054,8483,2394,2394
3055,8486,2421,2421
3056,8488,2449,2449
3057,8491,2477,2477
3058,8494,2505,2505
3059,8497,2533,2533
3060,8500,2561,2561
3061,8502,2589,2589
3062,8505,2616,2616
3063,8508,2641,2641
3064,8511,2666,2666
3065,8513,2689,2689
3066,8516,2711,2711
3067,8519,2730,2730
3068,8522,2748,2748
3069,8525,2763,2763
3070,8527,2775,2775
3071,8530,2785,2785
3072,8533,2792,2792
3073,8536,2797,2797
3074,8538,2798,2798
3075,8541,2797,2797
3076,8544,2792,2792
3077,8547,2785,2785
3078,8550,2775,2775
3079,8552,2048,2048
3080,8555,2048,2048
3081,8558,2048,2048
3082,8561,2048,2048
3083,8563,2048,2048
3084,8566,2048,2048
3085,8569,2048,2048
3086,8572,2048,2048
3087,8575,2048,2048
3088,8577,2048,2048
3089,8580,2048,2048
3090,8583,2048,2048
3091,8586,2048,2048
3092,8588,2048,2048
3093,8591,2048,2048
3094,8594,2048,2048
3095,8597,2048,2048
3096,8600,2048,2048
3097,8602,2048,2048
3098,8605,2048,2048
3099,8608,2048,2048
3100,8611,2048,2048
3101,8613,2054,2054
3102,8616,2055,2055
3103,8619,2057,2057
3104,8622,2058,2058
3105,8625,2060,2060
3106,8627,2063,2063
3107,8630,2066,2066
3108,8633,2069,2069
3109,8636,2073,2073
3110,8638,2077,2077
3111,8641,2082,2082
3112,8644,2087,2087
3113,8647,2094,2094
3114,8650,2101,2101
3115,8652,2109,2109
3116,8655,2118,2118
3117,8658,2128,2128
3118,8661,2139,2139
3119,8663,2151,2151
3120,8666,2165,2165
3121,8669,2179,2179
3122,8672,2195,2195
3123,8675,2212,2212
3124,8677,2231,2231
3125,8680,2251,2251
3126,8683,2272,2272
3127,8686,2294,2294
3128,8688,2317,2317
3129,8691,2342,2342
3130,8694,2367,2367
3131,8697,2394,2394
3132,8700,2421,2421
3133,8702,2449,2449
3134,8705,2477,2477
3135,8708,2505,2505
3136,8711,2533,2533
3137,8713,2561,2561
3138,8716,2589,2589
3139,8719,2616,2616
3140,8722,2641,2641
3141,8725,2666,2666
3142,8727,2689,2689
3143,8730,2711,2711
3144,8733,2730,2730
3145,8736,2748,2748
3146,8738,2763,2763
3147,8741,2775,2775
3148,8744,2785,2785
3149,8747,2792,2792
3150,8750,2797,2797
3151,8752,2798,2798
3152,8755,2797,2797
3153,8758,2792,2792
3154,8761,2785,2785
3155,8763,2775,2775
3156,8766,2763,2763
3157,8769,2748,2748
3158,8772,2730,2730
3159,8775,2711,2711
3160,8777,2689,2689
3161,8780,2666,2666
3162,8783,2641,2641
3163,8786,2616,2616
3164,8788,2589,2589
3165,8791,2561,2561
3166,8794,2533,2533
3167,8797,2505,2505
3168,8800,2477,2477
3169,8802,2449,2449
3170,8805,2421,2421
3171,8808,2394,2394
3172,8811,2367,2367
3173,8813,2342,2342
3174,8816,2317,2317
3175,8819,2294,2294
3176,8822,2272,2272
3177,8825,2251,2251
3178,8827,2231,2231
3179,8830,2212,2212
3180,8833,2195,2195
3181,8836,2179,2179
3182,8838,2165,2165
3183,8841,2151,2151
3184,8844,2139,2139
3185,8847,2128,2128
3186,8850,2118,2118
3187,8852,2048,2048
3188,8855,2048,2048
3189,8858,2048,2048
3190,8861,2048,2048
3191,8863,2048,2048
3192,8866,2048,2048
3193,8869,2048,2048
3194,8872,2048,2048
3195,8875,2048,2048
3196,8877,2048,2048
3197,8880,2048,2048
3198,8883,2048,2048
3199,8886,2048,2048
3200,8888,2048,2048
3201,8891,2048,2048
3202,8894,2048,2048
3203,8897,2048,2048
3204,8900,2048,2048
3205,8902,2048,2048
3206,8905,2048,2048
3207,8908,2048,2048
3208,8911,2048,2048
3209,8913,2054,2054
3210,8916,2055,2055
3211,8919,2057,2057
3212,8922,2058,2058
3213,8925,2060,2060
3214,8927,2063,2063
3215,8930,2066,2066
3216,8933,2069,2069
3217,8936,2073,2073
3218,8938,2077,2077
3219,8941,2082,2082
3220,8944,2087,2087
3221,8947,2094,2094
3222,8950,2101,2101
3223,8952,2109,2109
3224,8955,2118,2118
3225,8958,2128,2128
3226,8961,2139,2139
3227,8963,2151,2151
3228,8966,2165,2165
3229,8969,2179,2179
3230,8972,2195,2195
3231,8975,2212,2212
3232,8977,2231,2231
3233,8980,2251,2251
3234,8983,2272,2272
3235,8986,2294,2294
3236,8988,2317,2317
3237,8991,2342,2342
3238,8994,2367,2367
3239,8997,2394,2394
3240,9000,2421,2421
3241,9002,2449,2449
3242,9005,2477,2477
3243,9008,2505,2505
3244,9011,2533,2533
3245,9013,2561,2561
3246,9016,2589,2589
3247,9019,2616,2616
3248,9022,2641,2641
3249,9025,2666,2666
3250,9027,2689,2689
3251,9030,2711,2711
3252,9033,2730,2730
3253,9036,2748,2748
3254,9038,2763,2763
3255,9041,2775,2775
3256,9044,2785,2785
3257,9047,2792,2792
3258,9050,2797,2797
3259,9052,2048,2048
3260,9055,2048,2048
3261,9058,2048,2048
3262,9061,2048,2048
3263,9063,2048,2048
3264,9066,2048,2048
3265,9069,2048,2048
3266,9072,2048,2048
3267,9075,2048,2048
3268,9077,2048,2048
3269,9080,2048,2048
3270,9083,2048,2048
3271,9086,2048,2048
3272,9088,2048,2048
3273,9091,2048,2048
3274,9094,2048,2048
3275,9097,2048,2048
3276,9100,2048,2048
3277,9102,2048,2048
3278,9105,2048,2048
3279,9108,2048,2048
3280,9111,2048,2048
3281,9113,2054,2054
3282,9116,2055,2055
3283,9119,2057,2057
3284,9122,2058,2058
3285,9125,2060,2060
3286,9127,2063,2063
3287,9130,2066,2066
3288,9133,2069,2069
3289,9136,2073,2073
3290,9138,2077,2077
3291,9141,2082,2082
3292,9144,2087,2087
3293,9147,2094,2094
3294,9150,2101,2101
3295,9152,2109,2109
3296,9155,2118,2118
3297,9158,2128,2128
3298,9161,2139,2139
3299,9163,2151,2151
3300,9166,2165,2165
3301,9169,2179,2179
3302,9172,2195,2195
3303,9175,2212,2212
3304,9177,2231,2231
3305,9180,2251,2251
3306,9183,2272,2272
3307,9186,2294,2294
3308,9188,2317,2317
3309,9191,2342,2342
3310,9194,2367,2367
3311,9197,2394,2394
3312,9200,2421,2421
3313,9202,2449,2449
3314,9205,2477,2477
3315,9208,2505,2505
3316,9211,2533,2533
3317,9213,2561,2561
3318,9216,2589,2589
3319,9219,2616,2616
3320,9222,2641,2641
3321,9225,2666,2666
3322,9227,2689,2689
3323,9230,2711,2711
3324,9233,2730,2730
3325,9236,2748,2748
3326,9238,2763,2763
3327,9241,2775,2775
3328,9244,2785,2785
3329,9247,2792,2792
3330,9250,2797,2797
3331,9252,2798,2798
3332,9255,2797,2797
3333,9258,2792,2792
3334,9261,2785,2785
3335,9263,2775,2775
3336,9266,2763,2763
3337,9269,2748,2748
3338,9272,2730,2730
3339,9275,2711,2711
3340,9277,2689,2689
3341,9280,2666,2666
3342,9283,2641,2641
3343,9286,2616,2616
3344,9288,2589,2589
3345,9291,2561,2561
3346,9294,2533,2533
3347,9297,2505,2505
3348,9300,2477,2477
3349,9302,2449,2449
3350,9305,2421,2421
3351,9308,2394,2394
3352,9311,2367,2367
3353,9313,2342,2342
3354,9316,2317,2317
3355,9319,2294,2294
3356,9322,2272,2272
3357,9325,2251,2251
3358,9327,2231,2231
3359,9330,2212,2212
3360,9333,2195,2195
3361,9336,2179,2179
3362,9338,2165,2165
3363,9341,2151,2151
3364,9344,2139,2139
3365,9347,2128,2128
3366,9350,2118,2118
3367,9352,2109,2109
3368,9355,2101,2101
3369,9358,2094,2094
3370,9361,2087,2087
3371,9363,2082,2082
3372,9366,2077,2077
3373,9369,2073,2073
3374,9372,2069,2069
3375,9375,2066,2066
3376,9377,2063,2063
3377,9380,2060,2060
3378,9383,2058,2058
3379,9386,2048,2048
3380,9388,2048,2048
3381,9391,2048,2048
3382,9394,2048,2048
3383,9397,2048,2048
3384,9400,2048,2048
3385,9402,2048,2048
3386,9405,2048,2048
3387,9408,2048,2048
3388,9411,2048,2048
3389,9413,2048,2048
3390,9416,2048,2048
3391,9419,2048,2048
3392,9422,2048,2048
3393,9425,2048,2048
3394,9427,2048,2048
3395,9430,2048,2048
3396,9433,2048,2048
3397,9436,2048,2048
3398,9438,2048,2048
3399,9441,2048,2048
3400,9444,2048,2048
3401,9447,2054,2054
3402,9450,2055,2055
3403,9452,2057,2057
3404,9455,2058,2058
3405,9458,2060,2060
3406,9461,2063,2063
3407,9463,2066,2066
3408,9466,2069,2069
3409,9469,2073,2073
3410,9472,2077,2077
3411,9475,2082,2082
3412,9477,2087,2087
3413,9480,2094,2094
3414,9483,2101,2101
3415,9486,2109,2109
3416,9488,2118,2118
3417,9491,2128,2128
3418,9494,2139,2139
3419,9497,2151,2151
3420,9500,2165,2165
3421,9502,2179,2179
3422,9505,2195,2195
3423,9508,2212,2212
3424,9511,2231,2231
3425,9513,2251,2251
3426,9516,2272,2272
3427,9519,2294,2294
3428,9522,2317,2317
3429,9525,2342,2342
3430,9527,2367,2367
3431,9530,2394,2394
3432,9533,2421,2421
3433,9536,2449,2449
3434,9538,2477,2477
3435,9541,2505,2505
3436,9544,2533,2533
3437,9547,2561,2561
3438,9550,2589,2589
3439,9552,2616,2616
3440,9555,2641,2641
3441,9558,2666,2666
3442,9561,2689,2689
3443,9563,2711,2711
3444,9566,2730,2730
3445,9569,2748,2748
3446,9572,2763,2763
3447,9575,2775,2775
3448,9577,2785,2785
3449,9580,2792,2792
3450,9583,2797,2797
3451,9586,2798,2798
3452,9588,2797,2797
3453,9591,2792,2792
3454,9594,2785,2785
3455,9597,2775,2775
3456,9600,2763,2763
3457,9602,2748,2748
3458,9605,2730,2730
3459,9608,2711,2711
3460,9611,2689,2689
3461,9613,2666,2666
3462,9616,2641,2641
3463,9619,2616,2616
3464,9622,2589,2589
3465,9625,2561,2561
3466,9627,2533,2533
3467,9630,2505,2505
3468,9633,2477,2477
3469,9636,2449,2449
3470,9638,2421,2421
3471,9641,2394,2394
3472,9644,2367,2367
3473,9647,2342,2342
3474,9650,2317,2317
3475,9652,2294,2294
3476,9655,2272,2272
3477,9658,2251,2251
3478,9661,2231,2231
3479,9663,2212,2212
3480,9666,2195,2195
3481,9669,2179,2179
3482,9672,2165,2165
3483,9675,2151,2151
3484,9677,2139,2139
3485,9680,2128,2128
3486,9683,2118,2118
3487,9686,2048,2048
3488,9688,2048,2048
3489,9691,2048,2048
3490,9694,2048,2048
3491,9697,2048,2048
3492,9700,2048,2048
3493,9702,2048,2048
3494,9705,2048,2048
3495,9708,2048,2048
3496,9711,2048,2048
3497,9713,2048,2048
3498,9716,2048,2048
3499,9719,2048,2048
3500,9722,2048,2048
3501,9725,2048,2048
3502,9727,2048,2048
3503,9730,2048,2048
3504,9733,2048,2048
3505,9736,2048,2048
3506,9738,2048,2048
3507,9741,2048,2048
3508,9744,2048,2048
3509,9747,2054,2054
3510,9750,2055,2055
3511,9752,2057,2057
3512,9755,2058,2058
3513,9758,2060,2060
3514,9761,2063,2063
3515,9763,2066,2066
3516,9766,2069,2069
3517,9769,2073,2073
3518,9772,2077,2077
3519,9775,2082,2082
3520,9777,2087,2087
3521,9780,2094,2094
3522,9783,2101,2101
3523,9786,2109,2109
3524,9788,2118,2118
3525,9791,2128,2128
3526,9794,2139,2139
3527,9797,2151,2151
3528,9800,2165,2165
3529,9802,2179,2179
3530,9805,2195,2195
3531,9808,2212,2212
3532,9811,2231,2231
3533,9813,2251,2251
3534,9816,2272,2272
3535,9819,2294,2294
3536,9822,2317,2317
3537,9825,2342,2342
3538,9827,2367,2367
3539,9830,2394,2394
3540,9833,2421,2421
3541,9836,2449,2449
3542,9838,2477,2477
3543,9841,2505,2505
3544,9844,2533,2533
3545,9847,2561,2561
3546,9850,2589,2589
3547,9852,2616,2616
3548,9855,2641,2641
3549,9858,2666,2666
3550,9861,2689,2689
3551,9863,2711,2711
3552,9866,2730,2730
3553,9869,2748,2748
3554,9872,2763,2763
3555,9875,2775,2775
3556,9877,2785,2785
3557,9880,2792,2792
3558,9883,2797,2797
3559,9886,2798,2798
3560,9888,2797,2797
3561,9891,2792,2792
3562,9894,2785,2785
3563,9897,2775,2775
3564,9900,2763,2763
3565,9902,2748,2748
3566,9905,2730,2730
3567,9908,2711,2711
3568,9911,2689,2689
3569,9913,2666,2666
3570,9916,2641,2641
3571,9919,2616,2616
3572,9922,2589,2589
3573,9925,2561,2561
3574,9927,2533,2533
3575,9930,2505,2505
3576,9933,2477,2477
3577,9936,2449,2449
3578,9938,2421,2421
3579,9941,2394,2394
3580,9944,2367,2367
3581,9947,2342,2342
3582,9950,2317,2317
3583,9952,2294,2294
3584,9955,2272,2272
3585,9958,2251,2251
3586,9961,2231,2231
3587,9963,2212,2212
3588,9966,2195,2195
3589,9969,2179,2179
3590,9972,2165,2165
3591,9975,2151,2151
3592,9977,2139,2139
3593,9980,2128,2128
3594,9983,2118,2118
3595,9986,2048,2048
3596,9988,2048,2048
3597,9991,2048,2048
3598,9994,2048,2048
3599,9997,2048,2048
3600,10000,2048,2048
3601,10002,2048,2048
3602,10005,2048,2048
3603,10008,2048,2048
3604,10011,2048,2048
3605,10013,2048,2048
3606,10016,2048,2048
3607,10019,2048,2048
3608,10022,2048,2048
3609,10025,2048,2048
3610,10027,2048,2048
3611,10030,2048,2048
3612,10033,2048,2048
3613,10036,2048,2048
3614,10038,2048,2048
3615,10041,2048,2048
3616,10044,2048,2048
3617,10047,2054,2054
3618,10050,2055,2055
3619,10052,2057,2057
3620,10055,2058,2058
3621,10058,2060,2060
3622,10061,2063,2063
3623,10063,2066,2066
3624,10066,2069,2069
3625,10069,2073,2073
3626,10072,2077,2077
3627,10075,2082,2082
3628,10077,2087,2087
3629,10080,2094,2094
3630,10083,2101,2101
3631,10086,2109,2109
3632,10088,2118,2118
3633,10091,2128,2128
3634,10094,2139,2139
3635,10097,2151,2151
3636,10100,2165,2165
3637,10102,2179,2179
3638,10105,2195,2195
3639,10108,2212,2212
3640,10111,2231,2231
3641,10113,2251,2251
3642,10116,2272,2272
3643,10119,2294,2294
3644,10122,2317,2317
3645,10125,2342,2342
3646,10127,2367,2367
3647,10130,2394,2394
3648,10133,2421,2421
3649,10136,2449,2449
3650,10138,2477,2477
3651,10141,2505,2505
3652,10144,2533,2533
3653,10147,2561,2561
3654,10150,2589,2589
3655,10152,2616,2616
3656,10155,2641,2641
3657,10158,2666,2666
3658,10161,2689,2689
3659,10163,2711,2711
3660,10166,2730,2730
3661,10169,2748,2748
3662,10172,2048,2048
3663,10175,2048,2048
3664,10177,2048,2048
3665,10180,2048,2048
3666,10183,2048,2048
3667,10186,2048,2048
3668,10188,2048,2048
3669,10191,2048,2048
3670,10194,2048,2048
3671,10197,2048,2048
3672,10200,2048,2048
3673,10202,2048,2048
3674,10205,2048,2048
3675,10208,2048,2048
3676,10211,2048,2048
3677,10213,2048,2048
3678,10216,2048,2048
3679,10219,2048,2048
3680,10222,2048,2048
3681,10225,2048,2048
3682,10227,2048,2048
3683,10230,2048,2048
3684,10233,2054,2054
3685,10236,2055,2055
3686,10238,2057,2057
3687,10241,2058,2058
3688,10244,2060,2060
3689,10247,2063,2063
3690,10250,2066,2066
3691,10252,2069,2069
3692,10255,2073,2073
3693,10258,2077,2077
3694,10261,2082,2082
3695,10263,2087,2087
3696,10266,2094,2094
3697,10269,2101,2101
3698,10272,2109,2109
3699,10275,2118,2118
3700,10277,2128,2128
3701,10280,2139,2139
3702,10283,2151,2151
3703,10286,2165,2165
3704,10288,2179,2179
3705,10291,2195,2195
3706,10294,2212,2212
3707,10297,2231,2231
3708,10300,2251,2251
3709,10302,2272,2272
3710,10305,2294,2294
3711,10308,2317,2317
3712,10311,2342,2342
3713,10313,2367,2367
3714,10316,2394,2394
3715,10319,2421,2421
3716,10322,2449,2449
3717,10325,2477,2477
3718,10327,2505,2505
3719,10330,2533,2533
3720,10333,2561,2561
3721,10336,2589,2589
3722,10338,2616,2616
3723,10341,2641,2641
3724,10344,2666,2666
3725,10347,2689,2689
3726,10350,2711,2711
3727,10352,2730,2730
3728,10355,2748,2748
3729,10358,2763,2763
3730,10361,2775,2775
3731,10363,2785,2785
3732,10366,2792,2792
3733,10369,2797,2797
3734,10372,2048,2048
3735,10375,2048,2048
3736,10377,2048,2048
3737,10380,2048,2048
3738,10383,2048,2048
3739,10386,2048,2048
3740,10388,2048,2048
3741,10391,2048,2048
3742,10394,2048,2048
3743,10397,2048,2048
3744,10400,2048,2048
3745,10402,2048,2048
3746,10405,2048,2048
3747,10408,2048,2048
3748,10411,2048,2048
3749,10413,2048,2048
3750,10416,2048,2048
3751,10419,2048,2048
3752,10422,2048,2048
3753,10425,2048,2048
3754,10427,2048,2048
3755,10430,2048,2048
3756,10433,2054,2054
3757,10436,2055,2055
3758,10438,2057,2057
3759,10441,2058,2058
3760,10444,2060,2060
3761,10447,2063,2063
3762,10450,2066,2066
3763,10452,2069,2069
3764,10455,2073,2073
3765,10458,2077,2077
3766,10461,2082,2082
3767,10463,2087,2087
3768,10466,2094,2094
3769,10469,2101,2101
3770,10472,2109,2109
3771,10475,2118,2118
3772,10477,2128,2128
3773,10480,2139,2139
3774,10483,2151,2151
3775,10486,2165,2165
3776,10488,2179,2179
3777,10491,2195,2195
3778,10494,2212,2212
3779,10497,2231,2231
3780,10500,2251,2251
3781,10502,2272,2272
3782,10505,2294,2294
3783,10508,2317,2317
3784,10511,2342,2342
3785,10513,2367,2367
3786,10516,2394,2394
3787,10519,2421,2421
3788,10522,2449,2449
3789,10525,2477,2477
3790,10527,2505,2505
3791,10530,2533,2533
3792,10533,2561,2561
3793,10536,2589,2589
3794,10538,2616,2616
3795,10541,2641,2641
3796,10544,2666,2666
3797,10547,2689,2689
3798,10550,2711,2711
3799,10552,2730,2730
3800,10555,2748,2748
3801,10558,2048,2048
3802,10561,2048,2048
3803,10563,2048,2048
3804,10566,2048,2048
3805,10569,2048,2048
3806,10572,2048,2048
3807,10575,2048,2048
3808,10577,2048,2048
3809,10580,2048,2048
3810,10583,2048,2048
3811,10586,2048,2048
3812,10588,2048,2048
3813,10591,2048,2048
3814,10594,2048,2048
3815,10597,2048,2048
3816,10600,2048,2048
3817,10602,2048,2048
3818,10605,2048,2048
3819,10608,2048,2048
3820,10611,2048,2048
3821,10613,2048,2048
3822,10616,2048,2048
3823,10619,2054,2054
3824,10622,2055,2055
3825,10625,2057,2057
3826,10627,2058,2058
3827,10630,2060,2060
3828,10633,2063,2063
3829,10636,2066,2066
3830,10638,2069,2069
3831,10641,2073,2073
3832,10644,2077,2077
3833,10647,2082,2082
3834,10650,2087,2087
3835,10652,2094,2094
3836,10655,2101,2101
3837,10658,2109,2109
3838,10661,2118,2118
3839,10663,2128,2128
3840,10666,2139,2139
3841,10669,2151,2151
3842,10672,2165,2165
3843,10675,2179,2179
3844,10677,2195,2195
3845,10680,2212,2212
3846,10683,2231,2231
3847,10686,2251,2251
3848,10688,2272,2272
3849,10691,2294,2294
3850,10694,2317,2317
3851,10697,2342,2342
3852,10700,2367,2367
3853,10702,2394,2394
3854,10705,2421,2421
3855,10708,2449,2449
3856,10711,2477,2477
3857,10713,2505,2505
3858,10716,2533,2533
3859,10719,2561,2561
3860,10722,2589,2589
3861,10725,2616,2616
3862,10727,2641,2641
3863,10730,2666,2666
3864,10733,2689,2689
3865,10736,2711,2711
3866,10738,2730,2730
3867,10741,2748,2748
3868,10744,2763,2763
3869,10747,2775,2775
3870,10750,2785,2785
3871,10752,2792,2792
3872,10755,2797,2797
3873,10758,2798,2798
3874,10761,2797,2797
3875,10763,2792,2792
3876,10766,2785,2785
3877,10769,2775,2775
3878,10772,2048,2048
3879,10775,2048,2048
3880,10777,2048,2048
3881,10780,2048,2048
3882,10783,2048,2048
3883,10786,2048,2048
3884,10788,2048,2048
3885,10791,2048,2048
3886,10794,2048,2048
3887,10797,2048,2048
3888,10800,2048,2048
3889,10802,2048,2048
3890,10805,2048,2048
3891,10808,2048,2048
3892,10811,2048,2048
3893,10813,2048,2048
3894,10816,2048,2048
3895,10819,2048,2048
3896,10822,2048,2048
3897,10825,2048,2048
3898,10827,2048,2048
3899,10830,2048,2048
3900,10833,2054,2054
3901,10836,2055,2055
3902,10838,2057,2057
3903,10841,2058,2058
3904,10844,2060,2060
3905,10847,2063,2063
3906,10850,2066,2066
3907,10852,2069,2069
3908,10855,2073,2073
3909,10858,2077,2077
3910,10861,2082,2082
3911,10863,2087,2087
3912,10866,2094,2094
3913,10869,2101,2101
3914,10872,2109,2109
3915,10875,2118,2118
3916,10877,2128,2128
3917,10880,2139,2139
3918,10883,2151,2151
3919,10886,2165,2165
3920,10888,2179,2179
3921,10891,2195,2195
3922,10894,2212,2212
3923,10897,2231,2231
3924,10900,2251,2251
3925,10902,2272,2272
3926,10905,2294,2294
3927,10908,2317,2317
3928,10911,2342,2342
3929,10913,2367,2367
3930,10916,2394,2394
3931,10919,2421,2421
3932,10922,2449,2449
3933,10925,2477,2477
3934,10927,2505,2505
3935,10930,2533,2533
3936,10933,2561,2561
3937,10936,2589,2589
3938,10938,2616,2616
3939,10941,2641,2641
3940,10944,2666,2666
3941,10947,2689,2689
3942,10950,2711,2711
3943,10952,2730,2730
3944,10955,2748,2748
3945,10958,2763,2763
3946,10961,2775,2775
3947,10963,2785,2785
3948,10966,2792,2792
3949,10969,2797,2797
3950,10972,2048,2048
3951,10975,2048,2048
3952,10977,2048,2048
3953,10980,2048,2048
3954,10983,2048,2048
3955,10986,2048,2048
3956,10988,2048,2048
3957,10991,2048,2048
3958,10994,2048,2048
3959,10997,2048,2048
3960,11000,2048,2048
3961,11002,2048,2048
3962,11005,2048,2048
3963,11008,2048,2048
3964,11011,2048,2048
3965,11013,2048,2048
3966,11016,2048,2048
3967,11019,2048,2048
3968,11022,2048,2048
3969,11025,2048,2048
3970,11027,2048,2048
3971,11030,2048,2048
3972,11033,2054,2054
3973,11036,2055,2055
3974,11038,2057,2057
3975,11041,2058,2058
3976,11044,2060,2060
3977,11047,2063,2063
3978,11050,2066,2066
3979,11052,2069,2069
3980,11055,2073,2073
3981,11058,2077,2077
3982,11061,2082,2082
3983,11063,2087,2087
3984,11066,2094,2094
3985,11069,2101,2101
3986,11072,2109,2109
3987,11075,2118,2118
3988,11077,2128,2128
3989,11080,2139,2139
3990,11083,2151,2151
3991,11086,2165,2165
3992,11088,2179,2179
3993,11091,2195,2195
3994,11094,2212,2212
3995,11097,2231,2231
3996,11100,2251,2251
3997,11102,2272,2272
3998,11105,2294,2294
3999,11108,2317,2317
4000,11111,2342,2342
4001,11113,2367,2367
4002,11116,2394,2394
4003,11119,2421,2421
4004,11122,2449,2449
4005,11125,2477,2477
4006,11127,2505,2505
4007,11130,2533,2533
4008,11133,2561,2561
4009,11136,2589,2589
4010,11138,2616,2616
4011,11141,2641,2641
4012,11144,2666,2666
4013,11147,2689,2689
4014,11150,2711,2711
4015,11152,2730,2730
4016,11155,2748,2748
4017,11158,2048,2048
4018,11161,2048,2048
4019,11163,2048,2048
4020,11166,2048,2048
4021,11169,2048,2048
4022,11172,2048,2048
4023,11175,2048,2048
4024,11177,2048,2048
4025,11180,2048,2048
4026,11183,2048,2048
4027,11186,2048,2048
4028,11188,2048,2048
4029,11191,2048,2048
4030,11194,2048,2048
4031,11197,2048,2048
4032,11200,2048,2048
4033,11202,2048,2048
4034,11205,2048,2048
4035,11208,2048,2048
4036,11211,2048,2048
4037,11213,2048,2048
4038,11216,2048,2048
4039,11219,2054,2054
4040,11222,2055,2055
4041,11225,2057,2057
4042,11227,2058,2058
4043,11230,2060,2060
4044,11233,2063,2063
4045,11236,2066,2066
4046,11238,2069,2069
4047,11241,2073,2073
4048,11244,2077,2077
4049,11247,2082,2082
4050,11250,2087,2087
4051,11252,2094,2094
4052,11255,2101,2101
4053,11258,2109,2109
4054,11261,2118,2118
4055,11263,2128,2128
4056,11266,2139,2139
4057,11269,2151,2151
4058,11272,2165,2165
4059,11275,2179,2179
4060,11277,2195,2195
4061,11280,2212,2212
4062,11283,2231,2231
4063,11286,2251,2251
4064,11288,2272,2272
4065,11291,2294,2294
4066,11294,2317,2317
4067,11297,2342,2342
4068,11300,2367,2367
4069,11302,2394,2394
4070,11305,2421,2421
4071,11308,2449,2449
4072,11311,2477,2477
4073,11313,2505,2505
4074,11316,2533,2533
4075,11319,2561,2561
4076,11322,2589,2589
4077,11325,2616,2616
4078,11327,2641,2641
4079,11330,2666,2666
4080,11333,2689,2689
4081,11336,2711,2711
4082,11338,2730,2730
4083,11341,2748,2748
4084,11344,2763,2763
4085,11347,2775,2775
4086,11350,2785,2785
4087,11352,2792,2792
4088,11355,2797,2797
4089,11358,2798,2798
4090,11361,2797,2797
4091,11363,2792,2792
4092,11366,2785,2785
4093,11369,2775,2775
4094,11372,2763,2763
4095,11375,2748,2748
4096,11377,2730,2730
4097,11380,2711,2711
4098,11383,2689,2689
4099,11386,2666,2666
4100,11388,2641,2641
4101,11391,2616,2616
4102,11394,2589,2589
4103,11397,2561,2561
4104,11400,2533,2533
4105,11402,2505,2505
4106,11405,2477,2477
4107,11408,2449,2449
4108,11411,2421,2421
4109,11413,2394,2394
4110,11416,2367,2367
4111,11419,2342,2342
4112,11422,2317,2317
4113,11425,2294,2294
4114,11427,2272,2272
4115,11430,2251,2251
4116,11433,2231,2231
4117,11436,2212,2212
4118,11438,2195,2195
4119,11441,2179,2179
4120,11444,2165,2165
4121,11447,2151,2151
4122,11450,2139,2139
4123,11452,2128,2128
4124,11455,2118,2118
4125,11458,2109,2109
4126,11461,2101,2101
4127,11463,2094,2094
4128,11466,2087,2087
4129,11469,2082,2082
4130,11472,2077,2077
4131,11475,2073,2073
4132,11477,2069,2069
4133,11480,2066,2066
4134,11483,2063,2063
4135,11486,2060,2060
4136,11488,2058,2058
4137,11491,2057,2057
4138,11494,2055,2055
4139,11497,2048,2048
4140,11500,2047,2047
4141,11502,2047,2047
4142,11505,2046,2046
4143,11508,2045,2045
4144,11511,2045,2045
4145,11513,2043,2043
4146,11516,2042,2042
4147,11519,2040,2040
4148,11522,2038,2038
4149,11525,2035,2035
4150,11527,2032,2032
4151,11530,2028,2028
4152,11533,2048,2048
4153,11536,2048,2048
4154,11538,2048,2048
4155,11541,2048,2048
4156,11544,2048,2048
4157,11547,2048,2048
4158,11550,2048,2048
4159,11552,2048,2048
4160,11555,2048,2048
4161,11558,2048,2048
4162,11561,2048,2048
4163,11563,2048,2048
4164,11566,2048,2048
4165,11569,2048,2048
4166,11572,2048,2048
4167,11575,2048,2048
4168,11577,2048,2048
4169,11580,2048,2048
4170,11583,2048,2048
4171,11586,2048,2048
4172,11588,2048,2048
4173,11591,2048,2048
4174,11594,2054,2054
4175,11597,2055,2055
4176,11600,2057,2057
4177,11602,2058,2058
4178,11605,2060,2060
4179,11608,2063,2063
4180,11611,2066,2066
4181,11613,2069,2069
4182,11616,2073,2073
4183,11619,2077,2077
4184,11622,2082,2082
4185,11625,2087,2087
4186,11627,2094,2094
4187,11630,2101,2101
4188,11633,2109,2109
4189,11636,2118,2118
4190,11638,2128,2128
4191,11641,2139,2139
4192,11644,2151,2151
4193,11647,2165,2165
4194,11650,2179,2179
4195,11652,2195,2195
4196,11655,2212,2212
4197,11658,2231,2231
4198,11661,2251,2251
4199,11663,2272,2272
4200,11666,2294,2294
4201,11669,2317,2317
4202,11672,2342,2342
4203,11675,2367,2367
4204,11677,2394,2394
4205,11680,2421,2421
4206,11683,2449,2449
4207,11686,2477,2477
4208,11688,2505,2505
4209,11691,2533,2533
4210,11694,2561,2561
4211,11697,2589,2589
4212,11700,2616,2616
4213,11702,2641,2641
4214,11705,2666,2666
4215,11708,2689,2689
4216,11711,2711,2711
4217,11713,2730,2730
4218,11716,2748,2748
4219,11719,2763,2763
4220,11722,2775,2775
4221,11725,2785,2785
4222,11727,2792,2792
4223,11730,2797,2797
4224,11733,2798,2798
4225,11736,2797,2797
4226,11738,2792,2792
4227,11741,2785,2785
4228,11744,2775,2775
4229,11747,2763,2763
4230,11750,2748,2748
4231,11752,2730,2730
4232,11755,2711,2711
4233,11758,2689,2689
4234,11761,2666,2666
4235,11763,2641,2641
4236,11766,2616,2616
4237,11769,2589,2589
4238,11772,2561,2561
4239,11775,2533,2533
4240,11777,2505,2505
4241,11780,2477,2477
4242,11783,2449,2449
4243,11786,2421,2421
4244,11788,2394,2394
4245,11791,2367,2367
4246,11794,2342,2342
4247,11797,2317,2317
4248,11800,2294,2294
4249,11802,2272,2272
4250,11805,2251,2251
4251,11808,2231,2231
4252,11811,2212,2212
4253,11813,2195,2195
4254,11816,2179,2179
4255,11819,2165,2165
4256,11822,2151,2151
4257,11825,2139,2139
4258,11827,2128,2128
4259,11830,2118,2118
4260,11833,2048,2048
4261,11836,2048,2048
4262,11838,2048,2048
4263,11841,2048,2048
4264,11844,2048,2048
4265,11847,2048,2048
4266,11850,2048,2048
4267,11852,2048,2048
4268,11855,2048,2048
4269,11858,2048,2048
4270,11861,2048,2048
4271,11863,2048,2048
4272,11866,2048,2048
4273,11869,2048,2048
4274,11872,2048,2048
4275,11875,2048,2048
4276,11877,2048,2048
4277,11880,2048,2048
4278,11883,2048,2048
4279,11886,2048,2048
4280,11888,2048,2048
4281,11891,2048,2048
4282,11894,2054,2054
4283,11897,2055,2055
4284,11900,2057,2057
4285,11902,2058,2058
4286,11905,2060,2060
4287,11908,2063,2063
4288,11911,2066,2066
4289,11913,2069,2069
4290,11916,2073,2073
4291,11919,2077,2077
4292,11922,2082,2082
4293,11925,2087,2087
4294,11927,2094,2094
4295,11930,2101,2101
4296,11933,2109,2109
4297,11936,2118,2118
4298,11938,2128,2128
4299,11941,2139,2139
4300,11944,2151,2151
4301,11947,2165,2165
4302,11950,2179,2179
4303,11952,2195,2195
4304,11955,2212,2212
4305,11958,2231,2231
4306,11961,2251,2251
4307,11963,2272,2272
4308,11966,2294,2294
4309,11969,2317,2317
4310,11972,2342,2342
4311,11975,2367,2367
4312,11977,2394,2394
4313,11980,2421,2421
4314,11983,2449,2449
4315,11986,2477,2477
4316,11988,2505,2505
4317,11991,2533,2533
4318,11994,2561,2561
4319,11997,2589,2589
4320,12000,2616,2616
4321,12002,2641,2641
4322,12005,2666,2666
4323,12008,2689,2689
4324,12011,2711,2711
4325,12013,2730,2730
4326,12016,2748,2748
4327,12019,2763,2763
4328,12022,2775,2775
4329,12025,2785,2785
4330,12027,2792,2792
4331,12030,2797,2797
4332,12033,2798,2798
4333,12036,2797,2797
4334,12038,2792,2792
4335,12041,2785,2785
4336,12044,2775,2775
4337,12047,2048,2048
4338,12050,2048,2048
4339,12052,2048,2048
4340,12055,2048,2048
4341,12058,2048,2048
4342,12061,2048,2048
4343,12063,2048,2048
4344,12066,2048,2048
4345,12069,2048,2048
4346,12072,2048,2048
4347,12075,2048,2048
4348,12077,2048,2048
4349,12080,2048,2048
4350,12083,2048,2048
4351,12086,2048,2048
4352,12088,2048,2048
4353,12091,2048,2048
4354,12094,2048,2048
4355,12097,2048,2048
4356,12100,2048,2048
4357,12102,2048,2048
4358,12105,2048,2048
4359,12108,2054,2054
4360,12111,2055,2055
4361,12113,2057,2057
4362,12116,2058,2058
4363,12119,2060,2060
4364,12122,2063,2063
4365,12125,2066,2066
4366,12127,2069,2069
4367,12130,2073,2073
4368,12133,2077,2077
4369,12136,2082,2082
4370,12138,2087,2087
4371,12141,2094,2094
4372,12144,2101,2101
4373,12147,2109,2109
4374,12150,2118,2118
4375,12152,2128,2128
4376,12155,2139,2139
4377,12158,2151,2151
4378,12161,2165,2165
4379,12163,2179,2179
4380,12166,2195,2195
4381,12169,2212,2212
4382,12172,2231,2231
4383,12175,2251,2251
4384,12177,2272,2272
4385,12180,2294,2294
4386,12183,2317,2317
4387,12186,2342,2342
4388,12188,2367,2367
4389,12191,2394,2394
4390,12194,2421,2421
4391,12197,2449,2449
4392,12200,2477,2477
4393,12202,2505,2505
4394,12205,2533,2533
4395,12208,2561,2561
4396,12211,2589,2589
4397,12213,2616,2616
4398,12216,2641,2641
4399,12219,2666,2666
4400,12222,2689,2689
4401,12225,2711,2711
4402,12227,2730,2730
4403,12230,2748,2748
4404,12233,2763,2763
4405,12236,2775,2775
4406,12238,2785,2785
4407,12241,2792,2792
4408,12244,2797,2797
4409,12247,2798,2798
4410,12250,2797,2797
4411,12252,2792,2792
4412,12255,2785,2785
4413,12258,2775,2775
4414,12261,2763,2763
4415,12263,2748,2748
4416,12266,2730,2730
4417,12269,2711,2711
4418,12272,2689,2689
4419,12275,2666,2666
4420,12277,2641,2641
4421,12280,2616,2616
4422,12283,2589,2589
4423,12286,2561,2561
4424,12288,2533,2533
4425,12291,2505,2505
4426,12294,2477,2477
4427,12297,2449,2449
4428,12300,2421,2421
4429,12302,2394,2394
4430,12305,2367,2367
4431,12308,2342,2342
4432,12311,2317,2317
4433,12313,2294,2294
4434,12316,2272,2272
4435,12319,2251,2251
4436,12322,2231,2231
4437,12325,2212,2212
4438,12327,2195,2195
4439,12330,2179,2179
4440,12333,2165,2165
4441,12336,2151,2151
4442,12338,2139,2139
4443,12341,2128,2128
4444,12344,2118,2118
4445,12347,2109,2109
4446,12350,2101,2101
4447,12352,2094,2094
4448,12355,2087,2087
4449,12358,2082,2082
4450,12361,2077,2077
4451,12363,2073,2073
4452,12366,2069,2069
4453,12369,2066,2066
4454,12372,2063,2063
4455,12375,2060,2060
4456,12377,2058,2058
4457,12380,2057,2057
4458,12383,2055,2055
4459,12386,2048,2048
4460,12388,2047,2047
4461,12391,2047,2047
4462,12394,2046,2046
4463,12397,2045,2045
4464,12400,2045,2045
4465,12402,2043,2043
4466,12405,2042,2042
4467,12408,2040,2040
4468,12411,2038,2038
4469,12413,2035,2035
4470,12416,2032,2032
4471,12419,2028,2028
4472,12422,2048,2048
4473,12425,2048,2048
4474,12427,2048,2048
4475,12430,2048,2048
4476,12433,2048,2048
4477,12436,2048,2048
4478,12438,2048,2048
4479,12441,2048,2048
4480,12444,2048,2048
4481,12447,2048,2048
4482,12450,2048,2048
4483,12452,2048,2048
4484,12455,2048,2048
4485,12458,2048,2048
4486,12461,2048,2048
4487,12463,2048,2048
4488,12466,2048,2048
4489,12469,2048,2048
4490,12472,2048,2048
4491,12475,2048,2048
4492,12477,2048,2048
4493,12480,2048,2048
4494,12483,2054,2054
4495,12486,2055,2055
4496,12488,2057,2057
4497,12491,2058,2058
4498,12494,2060,2060
4499,12497,2063,2063
4500,12500,2066,2066
4501,12502,2069,2069
4502,12505,2073,2073
4503,12508,2077,2077
4504,12511,2082,2082
4505,12513,2087,2087
4506,12516,2094,2094
4507,12519,2101,2101
4508,12522,2109,2109
4509,12525,2118,2118
4510,12527,2128,2128
4511,12530,2139,2139
4512,12533,2151,2151
4513,12536,2165,2165
4514,12538,2179,2179
4515,12541,2195,2195
4516,12544,2212,2212
4517,12547,2231,2231
4518,12550,2251,2251
4519,12552,2272,2272
4520,12555,2294,2294
4521,12558,2317,2317
4522,12561,2342,2342
4523,12563,2367,2367
4524,12566,2394,2394
4525,12569,2421,2421
4526,12572,2449,2449
4527,12575,2477,2477
4528,12577,2505,2505
4529,12580,2533,2533
4530,12583,2561,2561
4531,12586,2589,2589
4532,12588,2616,2616
4533,12591,2641,2641
4534,12594,2666,2666
4535,12597,2689,2689
4536,12600,2711,2711
4537,12602,2730,2730
4538,12605,2748,2748
4539,12608,2763,2763
4540,12611,2775,2775
4541,12613,2785,2785
4542,12616,2792,2792
4543,12619,2797,2797
4544,12622,2798,2798
4545,12625,2797,2797
4546,12627,2792,2792
4547,12630,2785,2785
4548,12633,2775,2775
4549,12636,2763,2763
4550,12638,2748,2748
4551,12641,2730,2730
4552,12644,2711,2711
4553,12647,2689,2689
4554,12650,2666,2666
4555,12652,2641,2641
4556,12655,2616,2616
4557,12658,2589,2589
4558,12661,2561,2561
4559,12663,2533,2533
4560,12666,2505,2505
4561,12669,2477,2477
4562,12672,2449,2449
4563,12675,2421,2421
4564,12677,2394,2394
4565,12680,2367,2367
4566,12683,2342,2342
4567,12686,2317,2317
4568,12688,2294,2294
4569,12691,2272,2272
4570,12694,2251,2251
4571,12697,2231,2231
4572,12700,2212,2212
4573,12702,2195,2195
4574,12705,2179,2179
4575,12708,2165,2165
4576,12711,2151,2151
4577,12713,2139,2139
4578,12716,2128,2128
4579,12719,2118,2118
4580,12722,2109,2109
4581,12725,2101,2101
4582,12727,2094,2094
4583,12730,2087,2087
4584,12733,2082,2082
4585,12736,2077,2077
4586,12738,2073,2073
4587,12741,2069,2069
4588,12744,2066,2066
4589,12747,2063,2063
4590,12750,2060,2060
4591,12752,2058,2058
4592,12755,2057,2057
4593,12758,2055,2055
4594,12761,2048,2048
4595,12763,2047,2047
4596,12766,2047,2047
4597,12769,2046,2046
4598,12772,2045,2045
4599,12775,2045,2045
4600,12777,2043,2043
4601,12780,2042,2042
4602,12783,2040,2040
4603,12786,2038,2038
4604,12788,2035,2035
4605,12791,2032,2032
4606,12794,2028,2028
4607,12797,2048,2048
4608,12800,2048,2048
4609,12802,2048,2048
4610,12805,2048,2048
4611,12808,2048,2048
4612,12811,2048,2048
4613,12813,2048,2048
4614,12816,2048,2048
4615,12819,2048,2048
4616,12822,2048,2048
4617,12825,2048,2048
4618,12827,2048,2048
4619,12830,2048,2048
4620,12833,2048,2048
4621,12836,2048,2048
4622,12838,2048,2048
4623,12841,2048,2048
4624,12844,2048,2048
4625,12847,2048,2048
4626,12850,2048,2048
4627,12852,2048,2048
4628,12855,2048,2048
4629,12858,2054,2054
4630,12861,2055,2055
4631,12863,2057,2057
4632,12866,2058,2058
4633,12869,2060,2060
4634,12872,2063,2063
4635,12875,2066,2066
4636,12877,2069,2069
4637,12880,2073,2073
4638,12883,2077,2077
4639,12886,2082,2082
4640,12888,2087,2087
4641,12891,2094,2094
4642,12894,2101,2101
4643,12897,2109,2109
4644,12900,2118,2118
4645,12902,2128,2128
4646,12905,2139,2139
4647,12908,2151,2151
4648,12911,2165,2165
4649,12913,2179,2179
4650,12916,2195,2195
4651,12919,2212,2212
4652,12922,2231,2231
4653,12925,2251,2251
4654,12927,2272,2272
4655,12930,2294,2294
4656,12933,2317,2317
4657,12936,2342,2342
4658,12938,2367,2367
4659,12941,2394,2394
4660,12944,2421,2421
4661,12947,2449,2449
4662,12950,2477,2477
4663,12952,2505,2505
4664,12955,2533,2533
4665,12958,2561,2561
4666,12961,2589,2589
4667,12963,2616,2616
4668,12966,2641,2641
4669,12969,2666,2666
4670,12972,2689,2689
4671,12975,2711,2711
4672,12977,2730,2730
4673,12980,2748,2748
4674,12983,2763,2763
4675,12986,2775,2775
4676,12988,2785,2785
4677,12991,2792,2792
4678,12994,2797,2797
4679,12997,2798,2798
4680,13000,2797,2797
4681,13002,2792,2792
4682,13005,2785,2785
4683,13008,2775,2775
4684,13011,2763,2763
4685,13013,2748,2748
4686,13016,2730,2730
4687,13019,2711,2711
4688,13022,2689,2689
4689,13025,2666,2666
4690,13027,2641,2641
4691,13030,2616,2616
4692,13033,2589,2589
4693,13036,2561,2561
4694,13038,2533,2533
4695,13041,2505,2505
4696,13044,2477,2477
4697,13047,2449,2449
4698,13050,2421,2421
4699,13052,2394,2394
4700,13055,2367,2367
4701,13058,2342,2342
4702,13061,2317,2317
4703,13063,2294,2294
4704,13066,2272,2272
4705,13069,2251,2251
4706,13072,2231,2231
4707,13075,2212,2212
4708,13077,2195,2195
4709,13080,2179,2179
4710,13083,2165,2165
4711,13086,2151,2151
4712,13088,2139,2139
4713,13091,2128,2128
4714,13094,2118,2118
4715,13097,2109,2109
4716,13100,2101,2101
4717,13102,2094,2094
4718,13105,2087,2087
4719,13108,2082,2082
4720,13111,2077,2077
4721,13113,2073,2073
4722,13116,2069,2069
4723,13119,2066,2066
4724,13122,2063,2063
4725,13125,2060,2060
4726,13127,2058,2058
4727,13130,2057,2057
4728,13133,2055,2055
4729,13136,2048,2048
4730,13138,2047,2047
4731,13141,2047,2047
4732,13144,2046,2046
4733,13147,2045,2045
4734,13150,2045,2045
4735,13152,2043,2043
4736,13155,2042,2042
4737,13158,2040,2040
4738,13161,2038,2038
4739,13163,2035,2035
4740,13166,2032,2032
4741,13169,2028,2028
4742,13172,2048,2048
4743,13175,2048,2048
4744,13177,2048,2048
4745,13180,2048,2048
4746,13183,2048,2048
4747,13186,2048,2048
4748,13188,2048,2048
4749,13191,2048,2048
4750,13194,2048,2048
4751,13197,2048,2048
4752,13200,2048,2048
4753,13202,2048,2048
4754,13205,2048,2048
4755,13208,2048,2048
4756,13211,2048,2048
4757,13213,2048,2048
4758,13216,2048,2048
4759,13219,2048,2048
4760,13222,2048,2048
4761,13225,2048,2048
4762,13227,2048,2048
4763,13230,2048,2048
4764,13233,2054,2054
4765,13236,2055,2055
4766,13238,2057,2057
4767,13241,2058,2058
4768,13244,2060,2060
4769,13247,2063,2063
4770,13250,2066,2066
4771,13252,2069,2069
4772,13255,2073,2073
4773,13258,2077,2077
4774,13261,2082,2082
4775,13263,2087,2087
4776,13266,2094,2094
4777,13269,2101,2101
4778,13272,2109,2109
4779,13275,2118,2118
4780,13277,2128,2128
4781,13280,2139,2139
4782,13283,2151,2151
4783,13286,2165,2165
4784,13288,2179,2179
4785,13291,2195,2195
4786,13294,2212,2212
4787,13297,2231,2231
4788,13300,2251,2251
4789,13302,2272,2272
4790,13305,2294,2294
4791,13308,2317,2317
4792,13311,2342,2342
4793,13313,2367,2367
4794,13316,2394,2394
4795,13319,2421,2421
4796,13322,2449,2449
4797,13325,2477,2477
4798,13327,2505,2505
4799,13330,2533,2533
4800,13333,2561,2561
4801,13336,2589,2589
4802,13338,2616,2616
4803,13341,2641,2641
4804,13344,2666,2666
4805,13347,2689,2689
4806,13350,2711,2711
4807,13352,2730,2730
4808,13355,2748,2748
4809,13358,2763,2763
4810,13361,2775,2775
4811,13363,2785,2785
4812,13366,2792,2792
4813,13369,2797,2797
4814,13372,2798,2798
4815,13375,2797,2797
4816,13377,2792,2792
4817,13380,2785,2785
4818,13383,2775,2775
4819,13386,2763,2763
4820,13388,2748,2748
4821,13391,2730,2730
4822,13394,2711,2711
4823,13397,2689,2689
4824,13400,2666,2666
4825,13402,2641,2641
4826,13405,2616,2616
4827,13408,2589,2589
4828,13411,2561,2561
4829,13413,2533,2533
4830,13416,2505,2505
4831,13419,2477,2477
4832,13422,2449,2449
4833,13425,2421,2421
4834,13427,2394,2394
4835,13430,2367,2367
4836,13433,2342,2342
4837,13436,2317,2317
4838,13438,2294,2294
4839,13441,2272,2272
4840,13444,2251,2251
4841,13447,2231,2231
4842,13450,2212,2212
4843,13452,2195,2195
4844,13455,2179,2179
4845,13458,2165,2165
4846,13461,2151,2151
4847,13463,2139,2139
4848,13466,2128,2128
4849,13469,2118,2118
4850,13472,2048,2048
4851,13475,2048,2048
4852,13477,2048,2048
4853,13480,2048,2048
4854,13483,2048,2048
4855,13486,2048,2048
4856,13488,2048,2048
4857,13491,2048,2048
4858,13494,2048,2048
4859,13497,2048,2048
4860,13500,2048,2048
4861,13502,2048,2048
4862,13505,2048,2048
4863,13508,2048,2048
4864,13511,2048,2048
4865,13513,2048,2048
4866,13516,2048,2048
4867,13519,2048,2048
4868,13522,2048,2048
4869,13525,2048,2048
4870,13527,2048,2048
4871,13530,2048,2048
4872,13533,2054,2054
4873,13536,2055,2055
4874,13538,2057,2057
4875,13541,2058,2058
4876,13544,2060,2060
4877,13547,2063,2063
4878,13550,2066,2066
4879,13552,2069,2069
4880,13555,2073,2073
4881,13558,2077,2077
4882,13561,2082,2082
4883,13563,2087,2087
4884,13566,2094,2094
4885,13569,2101,2101
4886,13572,2109,2109
4887,13575,2118,2118
4888,13577,2128,2128
4889,13580,2139,2139
4890,13583,2151,2151
4891,13586,2165,2165
4892,13588,2179,2179
4893,13591,2195,2195
4894,13594,2212,2212
4895,13597,2231,2231
4896,13600,2251,2251
4897,13602,2272,2272
4898,13605,2294,2294
4899,13608,2317,2317
4900,13611,2342,2342
4901,13613,2367,2367
4902,13616,2394,2394
4903,13619,2421,2421
4904,13622,2449,2449
4905,13625,2477,2477
4906,13627,2505,2505
4907,13630,2533,2533
4908,13633,2561,2561
4909,13636,2589,2589
4910,13638,2616,2616
4911,13641,2641,2641
4912,13644,2666,2666
4913,13647,2689,2689
4914,13650,2711,2711
4915,13652,2730,2730
4916,13655,2748,2748
4917,13658,2048,2048
4918,13661,2048,2048
4919,13663,2048,2048
4920,13666,2048,2048
4921,13669,2048,2048
4922,13672,2048,2048
4923,13675,2048,2048
4924,13677,2048,2048
4925,13680,2048,2048
4926,13683,2048,2048
4927,13686,2048,2048
4928,13688,2048,2048
4929,13691,2048,2048
4930,13694,2048,2048
4931,13697,2048,2048
4932,13700,2048,2048
4933,13702,2048,2048
4934,13705,2048,2048
4935,13708,2048,2048
4936,13711,2048,2048
4937,13713,2048,2048
4938,13716,2048,2048
4939,13719,2054,2054
4940,13722,2055,2055
4941,13725,2057,2057
4942,13727,2058,2058
4943,13730,2060,2060
4944,13733,2063,2063
4945,13736,2066,2066
4946,13738,2069,2069
4947,13741,2073,2073
4948,13744,2077,2077
4949,13747,2082,2082
4950,13750,2087,2087
4951,13752,2094,2094
4952,13755,2101,2101
4953,13758,2109,2109
4954,13761,2118,2118
4955,13763,2128,2128
4956,13766,2139,2139
4957,13769,2151,2151
4958,13772,2165,2165
4959,13775,2179,2179
4960,13777,2195,2195
4961,13780,2212,2212
4962,13783,2231,2231
4963,13786,2251,2251
4964,13788,2272,2272
4965,13791,2294,2294
4966,13794,2317,2317
4967,13797,2342,2342
4968,13800,2367,2367
4969,13802,2394,2394
4970,13805,2421,2421
4971,13808,2449,2449
4972,13811,2477,2477
4973,13813,2505,2505
4974,13816,2533,2533
4975,13819,2561,2561
4976,13822,2589,2589
4977,13825,2616,2616
4978,13827,2641,2641
4979,13830,2666,2666
4980,13833,2689,2689
4981,13836,2711,2711
4982,13838,2730,2730
4983,13841,2748,2748
4984,13844,2763,2763
4985,13847,2775,2775
4986,13850,2785,2785
4987,13852,2792,2792
4988,13855,2797,2797
4989,13858,2048,2048
4990,13861,2048,2048
4991,13863,2048,2048
4992,13866,2048,2048
4993,13869,2048,2048
4994,13872,2048,2048
4995,13875,2048,2048
4996,13877,2048,2048
4997,13880,2048,2048
4998,13883,2048,2048
4999,13886,2048,2048
5000,13888,2048,2048
5001,13891,2048,2048
5002,13894,2048,2048
5003,13897,2048,2048
5004,13900,2048,2048
5005,13902,2048,2048
5006,13905,2048,2048
5007,13908,2048,2048
5008,13911,2048,2048
5009,13913,2048,2048
5010,13916,2048,2048
5011,13919,2054,2054
5012,13922,2055,2055
5013,13925,2057,2057
5014,13927,2058,2058
5015,13930,2060,2060
5016,13933,2063,2063
5017,13936,2066,2066
5018,13938,2069,2069
5019,13941,2073,2073
5020,13944,2077,2077
5021,13947,2082,2082
5022,13950,2087,2087
5023,13952,2094,2094
5024,13955,2101,2101
5025,13958,2109,2109
5026,13961,2118,2118
5027,13963,2128,2128
5028,13966,2139,2139
5029,13969,2151,2151
5030,13972,2165,2165
5031,13975,2179,2179
5032,13977,2195,2195
5033,13980,2212,2212
5034,13983,2231,2231
5035,13986,2251,2251
5036,13988,2272,2272
5037,13991,2294,2294
5038,13994,2317,2317
5039,13997,2342,2342
5040,14000,2367,2367
5041,14002,2394,2394
5042,14005,2421,2421
5043,14008,2449,2449
5044,14011,2477,2477
5045,14013,2505,2505
5046,14016,2533,2533
5047,14019,2561,2561
5048,14022,2589,2589
5049,14025,2616,2616
5050,14027,2641,2641
5051,14030,2666,2666
5052,14033,2689,2689
5053,14036,2711,2711
5054,14038,2730,2730
5055,14041,2748,2748
5056,14044,2048,2048
5057,14047,2048,2048
5058,14050,2048,2048
5059,14052,2048,2048
5060,14055,2048,2048
5061,14058,2048,2048
5062,14061,2048,2048
5063,14063,2048,2048
5064,14066,2048,2048
5065,14069,2048,2048
5066,14072,2048,2048
5067,14075,2048,2048
5068,14077,2048,2048
5069,14080,2048,2048
5070,14083,2048,2048
5071,14086,2048,2048
5072,14088,2048,2048
5073,14091,2048,2048
5074,14094,2048,2048
5075,14097,2048,2048
5076,14100,2048,2048
5077,14102,2048,2048
5078,14105,2054,2054
5079,14108,2055,2055
5080,14111,2057,2057
5081,14113,2058,2058
5082,14116,2060,2060
5083,14119,2063,2063
5084,14122,2066,2066
5085,14125,2069,2069
5086,14127,2073,2073
5087,14130,2077,2077
5088,14133,2082,2082
5089,14136,2087,2087
5090,14138,2094,2094
5091,14141,2101,2101
5092,14144,2109,2109
5093,14147,2118,2118
5094,14150,2128,2128
5095,14152,2139,2139
5096,14155,2151,2151
5097,14158,2165,2165
5098,14161,2179,2179
5099,14163,2195,2195
5100,14166,2212,2212
5101,14169,2231,2231
5102,14172,2251,2251
5103,14175,2272,2272
5104,14177,2294,2294
5105,14180,2317,2317
5106,14183,2342,2342
5107,14186,2367,2367
5108,14188,2394,2394
5109,14191,2421,2421
5110,14194,2449,2449
5111,14197,2477,2477
5112,14200,2505,2505
5113,14202,2533,2533
5114,14205,2561,2561
5115,14208,2589,2589
5116,14211,2616,2616
5117,14213,2641,2641
5118,14216,2666,2666
5119,14219,2689,2689
5120,14222,2711,2711
5121,14225,2730,2730
5122,14227,2748,2748
5123,14230,2048,2048
5124,14233,2048,2048
5125,14236,2048,2048
5126,14238,2048,2048
5127,14241,2048,2048
5128,14244,2048,2048
5129,14247,2048,2048
5130,14250,2048,2048
5131,14252,2048,2048
5132,14255,2048,2048
5133,14258,2048,2048
5134,14261,2048,2048
5135,14263,2048,2048
5136,14266,2048,2048
5137,14269,2048,2048
5138,14272,2048,2048
5139,14275,2048,2048
5140,14277,2048,2048
5141,14280,2048,2048
5142,14283,2048,2048
5143,14286,2048,2048
5144,14288,2048,2048
5145,14291,2054,2054
5146,14294,2055,2055
5147,14297,2057,2057
5148,14300,2058,2058
5149,14302,2060,2060
5150,14305,2063,2063
5151,14308,2066,2066
5152,14311,2069,2069
5153,14313,2073,2073
5154,14316,2077,2077
5155,14319,2082,2082
5156,14322,2087,2087
5157,14325,2094,2094
5158,14327,2101,2101
5159,14330,2109,2109
5160,14333,2118,2118
5161,14336,2128,2128
5162,14338,2139,2139
5163,14341,2151,2151
5164,14344,2165,2165
5165,14347,2179,2179
5166,14350,2195,2195
5167,14352,2212,2212
5168,14355,2231,2231
5169,14358,2251,2251
5170,14361,2272,2272
5171,14363,2294,2294
5172,14366,2317,2317
5173,14369,2342,2342
5174,14372,2367,2367
5175,14375,2394,2394
5176,14377,2421,2421
5177,14380,2449,2449
5178,14383,2477,2477
5179,14386,2505,2505
5180,14388,2533,2533
5181,14391,2561,2561
5182,14394,2589,2589
5183,14397,2616,2616
5184,14400,2641,2641
5185,14402,2666,2666
5186,14405,2689,2689
5187,14408,2711,2711
5188,14411,2730,2730
5189,14413,2748,2748
5190,14416,2763,2763
5191,14419,2775,2775
5192,14422,2785,2785
5193,14425,2792,2792
5194,14427,2797,2797
5195,14430,2048,2048
5196,14433,2048,2048
5197,14436,2048,2048
5198,14438,2048,2048
5199,14441,2048,2048
5200,14444,2048,2048
5201,14447,2048,2048
5202,14450,2048,2048
5203,14452,2048,2048
5204,14455,2048,2048
5205,14458,2048,2048
5206,14461,2048,2048
5207,14463,2048,2048
5208,14466,2048,2048
5209,14469,2048,2048
5210,14472,2048,2048
5211,14475,2048,2048
5212,14477,2048,2048
5213,14480,2048,2048
5214,14483,2048,2048
5215,14486,2048,2048
5216,14488,2048,2048
5217,14491,2054,2054
5218,14494,2055,2055
5219,14497,2057,2057
5220,14500,2058,2058
5221,14502,2060,2060
5222,14505,2063,2063
5223,14508,2066,2066
5224,14511,2069,2069
5225,14513,2073,2073
5226,14516,2077,2077
5227,14519,2082,2082
5228,14522,2087,2087
5229,14525,2094,2094
5230,14527,2101,2101
5231,14530,2109,2109
5232,14533,2118,2118
5233,14536,2128,2128
5234,14538,2139,2139
5235,14541,2151,2151
5236,14544,2165,2165
5237,14547,2179,2179
5238,14550,2195,2195
5239,14552,2212,2212
5240,14555,2231,2231
5241,14558,2251,2251
5242,14561,2272,2272
5243,14563,2294,2294
5244,14566,2317,2317
5245,14569,2342,2342
5246,14572,2367,2367
5247,14575,2394,2394
5248,14577,2421,2421
5249,14580,2449,2449
5250,14583,2477,2477
5251,14586,2505,2505
5252,14588,2533,2533
5253,14591,2561,2561
5254,14594,2589,2589
5255,14597,2616,2616
5256,14600,2641,2641
5257,14602,2666,2666
5258,14605,2689,2689
5259,14608,2711,2711
5260,14611,2730,2730
5261,14613,2748,2748
5262,14616,2763,2763
5263,14619,2775,2775
5264,14622,2785,2785
5265,14625,2792,2792
5266,14627,2797,2797
5267,14630,2798,2798
5268,14633,2797,2797
5269,14636,2792,2792
5270,14638,2785,2785
5271,14641,2775,2775
5272,14644,2763,2763
5273,14647,2748,2748
5274,14650,2730,2730
5275,14652,2711,2711
5276,14655,2689,2689
5277,14658,2666,2666
5278,14661,2641,2641
5279,14663,2616,2616
5280,14666,2589,2589
5281,14669,2561,2561
5282,14672,2533,2533
5283,14675,2505,2505
5284,14677,2477,2477
5285,14680,2449,2449
5286,14683,2421,2421
5287,14686,2394,2394
5288,14688,2367,2367
5289,14691,2342,2342
5290,14694,2317,2317
5291,14697,2294,2294
5292,14700,2272,2272
5293,14702,2251,2251
5294,14705,2231,2231
5295,14708,2212,2212
5296,14711,2195,2195
5297,14713,2179,2179
5298,14716,2165,2165
5299,14719,2151,2151
5300,14722,2139,2139
5301,14725,2128,2128
5302,14727,2118,2118
5303,14730,2109,2109
5304,14733,2101,2101
5305,14736,2094,2094
5306,14738,2087,2087
5307,14741,2082,2082
5308,14744,2077,2077
5309,14747,2073,2073
5310,14750,2069,2069
5311,14752,2066,2066
5312,14755,2063,2063
5313,14758,2060,2060
5314,14761,2058,2058
5315,14763,2057,2057
5316,14766,2055,2055
5317,14769,2048,2048
5318,14772,2047,2047
5319,14775,2047,2047
5320,14777,2046,2046
5321,14780,2045,2045
5322,14783,2045,2045
5323,14786,2043,2043
5324,14788,2042,2042
5325,14791,2040,2040
5326,14794,2038,2038
5327,14797,2035,2035
5328,14800,2032,2032
5329,14802,2028,2028
5330,14805,2048,2048
5331,14808,2048,2048
5332,14811,2048,2048
5333,14813,2048,2048
5334,14816,2048,2048
5335,14819,2048,2048
5336,14822,2048,2048
5337,14825,2048,2048
5338,14827,2048,2048
5339,14830,2048,2048
5340,14833,2048,2048
5341,14836,2048,2048
5342,14838,2048,2048
5343,14841,2048,2048
5344,14844,2048,2048
5345,14847,2048,2048
5346,14850,2048,2048
5347,14852,2048,2048
5348,14855,2048,2048
5349,14858,2048,2048
5350,14861,2048,2048
5351,14863,2048,2048
5352,14866,2054,2054
5353,14869,2055,2055
5354,14872,2057,2057
5355,14875,2058,2058
5356,14877,2060,2060
5357,14880,2063,2063
5358,14883,2066,2066
5359,14886,2069,2069
5360,14888,2073,2073
5361,14891,2077,2077
5362,14894,2082,2082
5363,14897,2087,2087
5364,14900,2094,2094
5365,14902,2101,2101
5366,14905,2109,2109
5367,14908,2118,2118
5368,14911,2128,2128
5369,14913,2139,2139
5370,14916,2151,2151
5371,14919,2165,2165
5372,14922,2179,2179
5373,14925,2195,2195
5374,14927,2212,2212
5375,14930,2231,2231
5376,14933,2251,2251
5377,14936,2272,2272
5378,14938,2294,2294
5379,14941,2317,2317
5380,14944,2342,2342
5381,14947,2367,2367
5382,14950,2394,2394
5383,14952,2421,2421
5384,14955,2449,2449
5385,14958,2477,2477
5386,14961,2505,2505
5387,14963,2533,2533
5388,14966,2561,2561
5389,14969,2589,2589
5390,14972,2616,2616
5391,14975,2641,2641
5392,14977,2666,2666
5393,14980,2689,2689
5394,14983,2711,2711
5395,14986,2730,2730
5396,14988,2748,2748
5397,14991,2763,2763
5398,14994,2775,2775
5399,14997,2785,2785
