Index,Time_ms,Raw,Filtered
0,0,2048,2048
1,2,2048,2048
2,5,2048,2048
3,8,2048,2048
4,11,2048,2048
5,13,2048,2048
6,16,2048,2048
7,19,2048,2048
8,22,2048,2048
9,25,2048,2048
10,27,2048,2048
11,30,2048,2048
12,33,2048,2048
13,36,2048,2048
14,38,2048,2048
15,41,2048,2048
16,44,2048,2048
17,47,2048,2048
18,50,2048,2048
19,52,2048,2048
20,55,2048,2048
21,58,2048,2048
22,61,2048,2048
23,63,2048,2048
24,66,2048,2048
25,69,2048,2048
26,72,2048,2048
27,75,2048,2048
28,77,2048,2048
29,80,2048,2048
30,83,2048,2048
31,86,2048,2048
32,88,2048,2048
33,91,2048,2048
34,94,2048,2048
35,97,2048,2048
36,100,2048,2048
37,102,2048,2048
38,105,2048,2048
39,108,2048,2048
40,111,2048,2048
41,113,2048,2048
42,116,2048,2048
43,119,2048,2048
44,122,2048,2048
45,125,2048,2048
46,127,2048,2048
47,130,2048,2048
48,133,2048,2048
49,136,2048,2048
50,138,2048,2048
51,141,2048,2048
52,144,2048,2048
53,147,2048,2048
54,150,2048,2048
55,152,2048,2048
56,155,2048,2048
57,158,2048,2048
58,161,2048,2048
59,163,2048,2048
60,166,2048,2048
61,169,2048,2048
62,172,2048,2048
63,175,2048,2048
64,177,2048,2048
65,180,2048,2048
66,183,2048,2048
67,186,2048,2048
68,188,2048,2048
69,191,2048,2048
70,194,2049,2049
71,197,2049,2049
72,200,2050,2050
73,202,2051,2051
74,205,2052,2052
75,208,2054,2054
76,211,2057,2057
77,213,2060,2060
78,216,2064,2064
79,219,2069,2069
80,222,2074,2074
81,225,2080,2080
82,227,2086,2086
83,230,2091,2091
84,233,2096,2096
85,236,2100,2100
86,238,2102,2102
87,241,2103,2103
88,244,2102,2102
89,247,2100,2100
90,250,2096,2096
91,252,2091,2091
92,255,2086,2086
93,258,2080,2080
94,261,2074,2074
95,263,2069,2069
96,266,2064,2064
97,269,2060,2060
98,272,2057,2057
99,275,2054,2054
100,277,2052,2052
101,280,2051,2051
102,283,2050,2050
103,286,2049,2049
104,288,2049,2049
105,291,2048,2048
106,294,2048,2048
107,297,2048,2048
108,300,2048,2048
109,302,2048,2048
110,305,2048,2048
111,308,2048,2048
112,311,2048,2048
113,313,2048,2048
114,316,2048,2048
115,319,2048,2048
116,322,2048,2048
117,325,2048,2048
118,327,2048,2048
119,330,2048,2048
120,333,2048,2048
121,336,2048,2048
122,338,2048,2048
123,341,2051,2051
124,344,2052,2052
125,347,2055,2055
126,350,2058,2058
127,352,2063,2063
128,355,2069,2069
129,358,2078,2078
130,361,2089,2089
131,363,2103,2103
132,366,2120,2120
133,369,2141,2141
134,372,2165,2165
135,375,2192,2192
136,377,2221,2221
137,380,2252,2252
138,383,2284,2284
139,386,2314,2314
140,388,2342,2342
141,391,2365,2365
142,394,2383,2383
143,397,2394,2394
144,400,2398,2398
145,402,2394,2394
146,405,2383,2383
147,408,2365,2365
148,411,2342,2342
149,413,2314,2314
150,416,2284,2284
151,419,2252,2252
152,422,2221,2221
153,425,2192,2192
154,427,2165,2165
155,430,2141,2141
156,433,2120,2120
157,436,2103,2103
158,438,2089,2089
159,441,2078,2078
160,444,2069,2069
161,447,2063,2063
162,450,2058,2058
163,452,2055,2055
164,455,2052,2052
165,458,2048,2048
166,461,2048,2048
167,463,2048,2048
168,466,2048,2048
169,469,2048,2048
170,472,2048,2048
171,475,2048,2048
172,477,2048,2048
173,480,2048,2048
174,483,2048,2048
175,486,2048,2048
176,488,2048,2048
177,491,2048,2048
178,494,2048,2048
179,497,2048,2048
180,500,2048,2048
181,502,2048,2048
182,505,2048,2048
183,508,2048,2048
184,511,2048,2048
185,513,2048,2048
186,516,2048,2048
187,519,2048,2048
188,522,2048,2048
189,525,2048,2048
190,527,2048,2048
191,530,2048,2048
192,533,2048,2048
193,536,2048,2048
194,538,2048,2048
195,541,2049,2049
196,544,2049,2049
197,547,2049,2049
198,550,2050,2050
199,552,2051,2051
200,555,2051,2051
201,558,2053,2053
202,561,2054,2054
203,563,2056,2056
204,566,2058,2058
205,569,2060,2060
206,572,2063,2063
207,575,2067,2067
208,577,2070,2070
209,580,2075,2075
210,583,2080,2080
211,586,2085,2085
212,588,2091,2091
213,591,2097,2097
214,594,2103,2103
215,597,2109,2109
216,600,2115,2115
217,602,2120,2120
218,605,2125,2125
219,608,2130,2130
220,611,2133,2133
221,613,2136,2136
222,616,2137,2137
223,619,2138,2138
224,622,2137,2137
225,625,2136,2136
226,627,2133,2133
227,630,2130,2130
228,633,2125,2125
229,636,2120,2120
230,638,2115,2115
231,641,2109,2109
232,644,2103,2103
233,647,2097,2097
234,650,2091,2091
235,652,2085,2085
236,655,2080,2080
237,658,2075,2075
238,661,2070,2070
239,663,2067,2067
240,666,2063,2063
241,669,2060,2060
242,672,2058,2058
243,675,2056,2056
244,677,2054,2054
245,680,2053,2053
246,683,2051,2051
247,686,2051,2051
248,688,2050,2050
249,691,2049,2049
250,694,2049,2049
251,697,2048,2048
252,700,2048,2048
253,702,2048,2048
254,705,2048,2048
255,708,2048,2048
256,711,2048,2048
257,713,2048,2048
258,716,2048,2048
259,719,2048,2048
260,722,2048,2048
261,725,2048,2048
262,727,2048,2048
263,730,2048,2048
264,733,2048,2048
265,736,2048,2048
266,738,2048,2048
267,741,2048,2048
268,744,2048,2048
269,747,2048,2048
270,750,2048,2048
271,752,2048,2048
272,755,2048,2048
273,758,2048,2048
274,761,2048,2048
275,763,2048,2048
276,766,2048,2048
277,769,2048,2048
278,772,2048,2048
279,775,2048,2048
280,777,2048,2048
281,780,2048,2048
282,783,2048,2048
283,786,2048,2048
284,788,2048,2048
285,791,2048,2048
286,794,2048,2048
287,797,2048,2048
288,800,2048,2048
289,802,2048,2048
290,805,2048,2048
291,808,2048,2048
292,811,2048,2048
293,813,2048,2048
294,816,2048,2048
295,819,2048,2048
296,822,2048,2048
297,825,2048,2048
298,827,2048,2048
299,830,2048,2048
300,833,2048,2048
301,836,2048,2048
302,838,2048,2048
303,841,2048,2048
304,844,2048,2048
305,847,2048,2048
306,850,2048,2048
307,852,2048,2048
308,855,2048,2048
309,858,2048,2048
310,861,2048,2048
311,863,2048,2048
312,866,2048,2048
313,869,2048,2048
314,872,2048,2048
315,875,2048,2048
316,877,2048,2048
317,880,2048,2048
318,883,2048,2048
319,886,2048,2048
320,888,2048,2048
321,891,2048,2048
322,894,2048,2048
323,897,2048,2048
324,900,2048,2048
325,902,2048,2048
326,905,2048,2048
327,908,2048,2048
328,911,2048,2048
329,913,2048,2048
330,916,2048,2048
331,919,2048,2048
332,922,2048,2048
333,925,2048,2048
334,927,2048,2048
335,930,2048,2048
336,933,2048,2048
337,936,2048,2048
338,938,2048,2048
339,941,2048,2048
340,944,2048,2048
341,947,2048,2048
342,950,2048,2048
343,952,2048,2048
344,955,2048,2048
345,958,2048,2048
346,961,2048,2048
347,963,2048,2048
348,966,2048,2048
349,969,2048,2048
350,972,2048,2048
351,975,2048,2048
352,977,2048,2048
353,980,2048,2048
354,983,2048,2048
355,986,2048,2048
356,988,2048,2048
357,991,2048,2048
358,994,2049,2049
359,997,2049,2049
360,1000,2050,2050
361,1002,2051,2051
362,1005,2052,2052
363,1008,2054,2054
364,1011,2057,2057
365,1013,2060,2060
366,1016,2064,2064
367,1019,2069,2069
368,1022,2074,2074
369,1025,2080,2080
370,1027,2086,2086
371,1030,2091,2091
372,1033,2096,2096
373,1036,2100,2100
374,1038,2102,2102
375,1041,2103,2103
376,1044,2102,2102
377,1047,2100,2100
378,1050,2096,2096
379,1052,2091,2091
380,1055,2086,2086
381,1058,2080,2080
382,1061,2074,2074
383,1063,2069,2069
384,1066,2064,2064
385,1069,2060,2060
386,1072,2057,2057
387,1075,2054,2054
388,1077,2052,2052
389,1080,2051,2051
390,1083,2050,2050
391,1086,2049,2049
392,1088,2049,2049
393,1091,2048,2048
394,1094,2048,2048
395,1097,2048,2048
396,1100,2048,2048
397,1102,2048,2048
398,1105,2048,2048
399,1108,2048,2048
400,1111,2048,2048
401,1113,2048,2048
402,1116,2048,2048
403,1119,2048,2048
404,1122,2048,2048
405,1125,2048,2048
406,1127,2048,2048
407,1130,2048,2048
408,1133,2048,2048
409,1136,2048,2048
410,1138,2048,2048
411,1141,2051,2051
412,1144,2052,2052
413,1147,2055,2055
414,1150,2058,2058
415,1152,2063,2063
416,1155,2069,2069
417,1158,2078,2078
418,1161,2089,2089
419,1163,2103,2103
420,1166,2120,2120
421,1169,2141,2141
422,1172,2165,2165
423,1175,2192,2192
424,1177,2221,2221
425,1180,2252,2252
426,1183,2284,2284
427,1186,2314,2314
428,1188,2342,2342
429,1191,2365,2365
430,1194,2383,2383
431,1197,2394,2394
432,1200,2398,2398
433,1202,2394,2394
434,1205,2383,2383
435,1208,2365,2365
436,1211,2342,2342
437,1213,2314,2314
438,1216,2284,2284
439,1219,2252,2252
440,1222,2221,2221
441,1225,2192,2192
442,1227,2165,2165
443,1230,2141,2141
444,1233,2120,2120
445,1236,2103,2103
446,1238,2089,2089
447,1241,2078,2078
448,1244,2069,2069
449,1247,2063,2063
450,1250,2058,2058
451,1252,2055,2055
452,1255,2052,2052
453,1258,2048,2048
454,1261,2048,2048
455,1263,2048,2048
456,1266,2048,2048
457,1269,2048,2048
458,1272,2048,2048
459,1275,2048,2048
460,1277,2048,2048
461,1280,2048,2048
462,1283,2048,2048
463,1286,2048,2048
464,1288,2048,2048
465,1291,2048,2048
466,1294,2048,2048
467,1297,2048,2048
468,1300,2048,2048
469,1302,2048,2048
470,1305,2048,2048
471,1308,2048,2048
472,1311,2048,2048
473,1313,2048,2048
474,1316,2048,2048
475,1319,2048,2048
476,1322,2048,2048
477,1325,2048,2048
478,1327,2048,2048
479,1330,2048,2048
480,1333,2048,2048
481,1336,2048,2048
482,1338,2048,2048
483,1341,2049,2049
484,1344,2049,2049
485,1347,2049,2049
486,1350,2050,2050
487,1352,2051,2051
488,1355,2051,2051
489,1358,2053,2053
490,1361,2054,2054
491,1363,2056,2056
492,1366,2058,2058
493,1369,2060,2060
494,1372,2063,2063
495,1375,2067,2067
496,1377,2070,2070
497,1380,2075,2075
498,1383,2080,2080
499,1386,2085,2085
500,1388,2091,2091
501,1391,2097,2097
502,1394,2103,2103
503,1397,2109,2109
504,1400,2115,2115
505,1402,2120,2120
506,1405,2125,2125
507,1408,2130,2130
508,1411,2133,2133
509,1413,2136,2136
510,1416,2137,2137
511,1419,2138,2138
512,1422,2137,2137
513,1425,2136,2136
514,1427,2133,2133
515,1430,2130,2130
516,1433,2125,2125
517,1436,2120,2120
518,1438,2115,2115
519,1441,2109,2109
520,1444,2103,2103
521,1447,2097,2097
522,1450,2091,2091
523,1452,2085,2085
524,1455,2080,2080
525,1458,2075,2075
526,1461,2070,2070
527,1463,2067,2067
528,1466,2063,2063
529,1469,2060,2060
530,1472,2058,2058
531,1475,2056,2056
532,1477,2054,2054
533,1480,2053,2053
534,1483,2051,2051
535,1486,2051,2051
536,1488,2050,2050
537,1491,2049,2049
538,1494,2049,2049
539,1497,2048,2048
540,1500,2048,2048
541,1502,2048,2048
542,1505,2048,2048
543,1508,2048,2048
544,1511,2048,2048
545,1513,2048,2048
546,1516,2048,2048
547,1519,2048,2048
548,1522,2048,2048
549,1525,2048,2048
550,1527,2048,2048
551,1530,2048,2048
552,1533,2048,2048
553,1536,2048,2048
554,1538,2048,2048
555,1541,2048,2048
556,1544,2048,2048
557,1547,2048,2048
558,1550,2048,2048
559,1552,2048,2048
560,1555,2048,2048
561,1558,2048,2048
562,1561,2048,2048
563,1563,2048,2048
564,1566,2048,2048
565,1569,2048,2048
566,1572,2048,2048
567,1575,2048,2048
568,1577,2048,2048
569,1580,2048,2048
570,1583,2048,2048
571,1586,2048,2048
572,1588,2048,2048
573,1591,2048,2048
574,1594,2048,2048
575,1597,2048,2048
576,1600,2048,2048
577,1602,2048,2048
578,1605,2048,2048
579,1608,2048,2048
580,1611,2048,2048
581,1613,2048,2048
582,1616,2048,2048
583,1619,2048,2048
584,1622,2048,2048
585,1625,2048,2048
586,1627,2048,2048
587,1630,2048,2048
588,1633,2048,2048
589,1636,2048,2048
590,1638,2048,2048
591,1641,2048,2048
592,1644,2048,2048
593,1647,2048,2048
594,1650,2048,2048
595,1652,2048,2048
596,1655,2048,2048
597,1658,2048,2048
598,1661,2048,2048
599,1663,2048,2048
600,1666,2048,2048
601,1669,2048,2048
602,1672,2048,2048
603,1675,2048,2048
604,1677,2048,2048
605,1680,2048,2048
606,1683,2048,2048
607,1686,2048,2048
608,1688,2048,2048
609,1691,2048,2048
610,1694,2048,2048
611,1697,2048,2048
612,1700,2048,2048
613,1702,2048,2048
614,1705,2048,2048
615,1708,2048,2048
616,1711,2048,2048
617,1713,2048,2048
618,1716,2048,2048
619,1719,2048,2048
620,1722,2048,2048
621,1725,2048,2048
622,1727,2048,2048
623,1730,2048,2048
624,1733,2048,2048
625,1736,2048,2048
626,1738,2048,2048
627,1741,2048,2048
628,1744,2048,2048
629,1747,2048,2048
630,1750,2048,2048
631,1752,2048,2048
632,1755,2048,2048
633,1758,2048,2048
634,1761,2048,2048
635,1763,2048,2048
636,1766,2048,2048
637,1769,2048,2048
638,1772,2048,2048
639,1775,2048,2048
640,1777,2048,2048
641,1780,2048,2048
642,1783,2048,2048
643,1786,2048,2048
644,1788,2048,2048
645,1791,2048,2048
646,1794,2049,2049
647,1797,2049,2049
648,1800,2050,2050
649,1802,2051,2051
650,1805,2052,2052
651,1808,2054,2054
652,1811,2057,2057
653,1813,2060,2060
654,1816,2064,2064
655,1819,2069,2069
656,1822,2074,2074
657,1825,2080,2080
658,1827,2086,2086
659,1830,2091,2091
660,1833,2096,2096
661,1836,2100,2100
662,1838,2102,2102
663,1841,2103,2103
664,1844,2102,2102
665,1847,2100,2100
666,1850,2096,2096
667,1852,2091,2091
668,1855,2086,2086
669,1858,2080,2080
670,1861,2074,2074
671,1863,2069,2069
672,1866,2064,2064
673,1869,2060,2060
674,1872,2057,2057
675,1875,2054,2054
676,1877,2052,2052
677,1880,2051,2051
678,1883,2050,2050
679,1886,2049,2049
680,1888,2049,2049
681,1891,2048,2048
682,1894,2048,2048
683,1897,2048,2048
684,1900,2048,2048
685,1902,2048,2048
686,1905,2048,2048
687,1908,2048,2048
688,1911,2048,2048
689,1913,2048,2048
690,1916,2048,2048
691,1919,2048,2048
692,1922,2048,2048
693,1925,2048,2048
694,1927,2048,2048
695,1930,2048,2048
696,1933,2048,2048
697,1936,2048,2048
698,1938,2048,2048
699,1941,2051,2051
700,1944,2052,2052
701,1947,2055,2055
702,1950,2058,2058
703,1952,2063,2063
704,1955,2069,2069
705,1958,2078,2078
706,1961,2089,2089
707,1963,2103,2103
708,1966,2120,2120
709,1969,2141,2141
710,1972,2165,2165
711,1975,2192,2192
712,1977,2221,2221
713,1980,2252,2252
714,1983,2284,2284
715,1986,2314,2314
716,1988,2342,2342
717,1991,2365,2365
718,1994,2383,2383
719,1997,2394,2394
720,2000,2398,2398
721,2002,2394,2394
722,2005,2383,2383
723,2008,2365,2365
724,2011,2342,2342
725,2013,2314,2314
726,2016,2284,2284
727,2019,2252,2252
728,2022,2221,2221
729,2025,2192,2192
730,2027,2165,2165
731,2030,2141,2141
732,2033,2120,2120
733,2036,2103,2103
734,2038,2089,2089
735,2041,2078,2078
736,2044,2069,2069
737,2047,2063,2063
738,2050,2058,2058
739,2052,2055,2055
740,2055,2052,2052
741,2058,2048,2048
742,2061,2048,2048
743,2063,2048,2048
744,2066,2048,2048
745,2069,2048,2048
746,2072,2048,2048
747,2075,2048,2048
748,2077,2048,2048
749,2080,2048,2048
750,2083,2048,2048
751,2086,2048,2048
752,2088,2048,2048
753,2091,2048,2048
754,2094,2048,2048
755,2097,2048,2048
756,2100,2048,2048
757,2102,2048,2048
758,2105,2048,2048
759,2108,2048,2048
760,2111,2048,2048
761,2113,2048,2048
762,2116,2048,2048
763,2119,2048,2048
764,2122,2048,2048
765,2125,2048,2048
766,2127,2048,2048
767,2130,2048,2048
768,2133,2048,2048
769,2136,2048,2048
770,2138,2048,2048
771,2141,2049,2049
772,2144,2049,2049
773,2147,2049,2049
774,2150,2050,2050
775,2152,2051,2051
776,2155,2051,2051
777,2158,2053,2053
778,2161,2054,2054
779,2163,2056,2056
780,2166,2058,2058
781,2169,2060,2060
782,2172,2063,2063
783,2175,2067,2067
784,2177,2070,2070
785,2180,2075,2075
786,2183,2080,2080
787,2186,2085,2085
788,2188,2091,2091
789,2191,2097,2097
790,2194,2103,2103
791,2197,2109,2109
792,2200,2115,2115
793,2202,2120,2120
794,2205,2125,2125
795,2208,2130,2130
796,2211,2133,2133
797,2213,2136,2136
798,2216,2137,2137
799,2219,2138,2138
800,2222,2137,2137
801,2225,2136,2136
802,2227,2133,2133
803,2230,2130,2130
804,2233,2125,2125
805,2236,2120,2120
806,2238,2115,2115
807,2241,2109,2109
808,2244,2103,2103
809,2247,2097,2097
810,2250,2091,2091
811,2252,2085,2085
812,2255,2080,2080
813,2258,2075,2075
814,2261,2070,2070
815,2263,2067,2067
816,2266,2063,2063
817,2269,2060,2060
818,2272,2058,2058
819,2275,2056,2056
820,2277,2054,2054
821,2280,2053,2053
822,2283,2051,2051
823,2286,2051,2051
824,2288,2050,2050
825,2291,2049,2049
826,2294,2049,2049
827,2297,2048,2048
828,2300,2048,2048
829,2302,2048,2048
830,2305,2048,2048
831,2308,2048,2048
832,2311,2048,2048
833,2313,2048,2048
834,2316,2048,2048
835,2319,2048,2048
836,2322,2048,2048
837,2325,2048,2048
838,2327,2048,2048
839,2330,2048,2048
840,2333,2048,2048
841,2336,2048,2048
842,2338,2048,2048
843,2341,2048,2048
844,2344,2048,2048
845,2347,2048,2048
846,2350,2048,2048
847,2352,2048,2048
848,2355,2048,2048
849,2358,2048,2048
850,2361,2048,2048
851,2363,2048,2048
852,2366,2048,2048
853,2369,2048,2048
854,2372,2048,2048
855,2375,2048,2048
856,2377,2048,2048
857,2380,2048,2048
858,2383,2048,2048
859,2386,2048,2048
860,2388,2048,2048
861,2391,2048,2048
862,2394,2048,2048
863,2397,2048,2048
864,2400,2048,2048
865,2402,2048,2048
866,2405,2048,2048
867,2408,2048,2048
868,2411,2048,2048
869,2413,2048,2048
870,2416,2048,2048
871,2419,2048,2048
872,2422,2048,2048
873,2425,2048,2048
874,2427,2048,2048
875,2430,2048,2048
876,2433,2048,2048
877,2436,2048,2048
878,2438,2048,2048
879,2441,2048,2048
880,2444,2048,2048
881,2447,2048,2048
882,2450,2048,2048
883,2452,2048,2048
884,2455,2048,2048
885,2458,2048,2048
886,2461,2048,2048
887,2463,2048,2048
888,2466,2048,2048
889,2469,2048,2048
890,2472,2048,2048
891,2475,2048,2048
892,2477,2048,2048
893,2480,2048,2048
894,2483,2048,2048
895,2486,2048,2048
896,2488,2048,2048
897,2491,2048,2048
898,2494,2048,2048
899,2497,2048,2048
900,2500,2048,2048
901,2502,2048,2048
902,2505,2048,2048
903,2508,2048,2048
904,2511,2048,2048
905,2513,2048,2048
906,2516,2048,2048
907,2519,2048,2048
908,2522,2048,2048
909,2525,2048,2048
910,2527,2048,2048
911,2530,2048,2048
912,2533,2048,2048
913,2536,2048,2048
914,2538,2048,2048
915,2541,2048,2048
916,2544,2048,2048
917,2547,2048,2048
918,2550,2048,2048
919,2552,2048,2048
920,2555,2048,2048
921,2558,2048,2048
922,2561,2048,2048
923,2563,2048,2048
924,2566,2048,2048
925,2569,2048,2048
926,2572,2048,2048
927,2575,2048,2048
928,2577,2048,2048
929,2580,2048,2048
930,2583,2048,2048
931,2586,2048,2048
932,2588,2048,2048
933,2591,2048,2048
934,2594,2049,2049
935,2597,2049,2049
936,2600,2050,2050
937,2602,2051,2051
938,2605,2052,2052
939,2608,2054,2054
940,2611,2057,2057
941,2613,2060,2060
942,2616,2064,2064
943,2619,2069,2069
944,2622,2074,2074
945,2625,2080,2080
946,2627,2086,2086
947,2630,2091,2091
948,2633,2096,2096
949,2636,2100,2100
950,2638,2102,2102
951,2641,2103,2103
952,2644,2102,2102
953,2647,2100,2100
954,2650,2096,2096
955,2652,2091,2091
956,2655,2086,2086
957,2658,2080,2080
958,2661,2074,2074
959,2663,2069,2069
960,2666,2064,2064
961,2669,2060,2060
962,2672,2057,2057
963,2675,2054,2054
964,2677,2052,2052
965,2680,2051,2051
966,2683,2050,2050
967,2686,2049,2049
968,2688,2049,2049
969,2691,2048,2048
970,2694,2048,2048
971,2697,2048,2048
972,2700,2048,2048
973,2702,2048,2048
974,2705,2048,2048
975,2708,2048,2048
976,2711,2048,2048
977,2713,2048,2048
978,2716,2048,2048
979,2719,2048,2048
980,2722,2048,2048
981,2725,2048,2048
982,2727,2048,2048
983,2730,2048,2048
984,2733,2048,2048
985,2736,2048,2048
986,2738,2048,2048
987,2741,2051,2051
988,2744,2052,2052
989,2747,2055,2055
990,2750,2058,2058
991,2752,2063,2063
992,2755,2069,2069
993,2758,2078,2078
994,2761,2089,2089
995,2763,2103,2103
996,2766,2120,2120
997,2769,2141,2141
998,2772,2165,2165
999,2775,2192,2192
1000,2777,2221,2221
1001,2780,2252,2252
1002,2783,2284,2284
1003,2786,2314,2314
1004,2788,2342,2342
1005,2791,2365,2365
1006,2794,2383,2383
1007,2797,2394,2394
1008,2800,2398,2398
1009,2802,2394,2394
1010,2805,2383,2383
1011,2808,2365,2365
1012,2811,2342,2342
1013,2813,2314,2314
1014,2816,2284,2284
1015,2819,2252,2252
1016,2822,2221,2221
1017,2825,2192,2192
1018,2827,2165,2165
1019,2830,2141,2141
1020,2833,2120,2120
1021,2836,2103,2103
1022,2838,2089,2089
1023,2841,2078,2078
1024,2844,2069,2069
1025,2847,2063,2063
1026,2850,2058,2058
1027,2852,2055,2055
1028,2855,2052,2052
1029,2858,2048,2048
1030,2861,2048,2048
1031,2863,2048,2048
1032,2866,2048,2048
1033,2869,2048,2048
1034,2872,2048,2048
1035,2875,2048,2048
1036,2877,2048,2048
1037,2880,2048,2048
1038,2883,2048,2048
1039,2886,2048,2048
1040,2888,2048,2048
1041,2891,2048,2048
1042,2894,2048,2048
1043,2897,2048,2048
1044,2900,2048,2048
1045,2902,2048,2048
1046,2905,2048,2048
1047,2908,2048,2048
1048,2911,2048,2048
1049,2913,2048,2048
1050,2916,2048,2048
1051,2919,2048,2048
1052,2922,2048,2048
1053,2925,2048,2048
1054,2927,2048,2048
1055,2930,2048,2048
1056,2933,2048,2048
1057,2936,2048,2048
1058,2938,2048,2048
1059,2941,2049,2049
1060,2944,2049,2049
1061,2947,2049,2049
1062,2950,2050,2050
1063,2952,2051,2051
1064,2955,2051,2051
1065,2958,2053,2053
1066,2961,2054,2054
1067,2963,2056,2056
1068,2966,2058,2058
1069,2969,2060,2060
1070,2972,2063,2063
1071,2975,2067,2067
1072,2977,2070,2070
1073,2980,2075,2075
1074,2983,2080,2080
1075,2986,2085,2085
1076,2988,2091,2091
1077,2991,2097,2097
1078,2994,2103,2103
1079,2997,2109,2109
1080,3000,2115,2115
1081,3002,2120,2120
1082,3005,2125,2125
1083,3008,2130,2130
1084,3011,2133,2133
1085,3013,2136,2136
1086,3016,2137,2137
1087,3019,2138,2138
1088,3022,2137,2137
1089,3025,2136,2136
1090,3027,2133,2133
1091,3030,2130,2130
1092,3033,2125,2125
1093,3036,2120,2120
1094,3038,2115,2115
1095,3041,2109,2109
1096,3044,2103,2103
1097,3047,2097,2097
1098,3050,2091,2091
1099,3052,2085,2085
1100,3055,2080,2080
1101,3058,2075,2075
1102,3061,2070,2070
1103,3063,2067,2067
1104,3066,2063,2063
1105,3069,2060,2060
1106,3072,2058,2058
1107,3075,2056,2056
1108,3077,2054,2054
1109,3080,2053,2053
1110,3083,2051,2051
1111,3086,2051,2051
1112,3088,2050,2050
1113,3091,2049,2049
1114,3094,2049,2049
1115,3097,2048,2048
1116,3100,2048,2048
1117,3102,2048,2048
1118,3105,2048,2048
1119,3108,2048,2048
1120,3111,2048,2048
1121,3113,2048,2048
1122,3116,2048,2048
1123,3119,2048,2048
1124,3122,2048,2048
1125,3125,2048,2048
1126,3127,2048,2048
1127,3130,2048,2048
1128,3133,2048,2048
1129,3136,2048,2048
1130,3138,2048,2048
1131,3141,2048,2048
1132,3144,2048,2048
1133,3147,2048,2048
1134,3150,2048,2048
1135,3152,2048,2048
1136,3155,2048,2048
1137,3158,2048,2048
1138,3161,2048,2048
1139,3163,2048,2048
1140,3166,2048,2048
1141,3169,2048,2048
1142,3172,2048,2048
1143,3175,2048,2048
1144,3177,2048,2048
1145,3180,2048,2048
1146,3183,2048,2048
1147,3186,2048,2048
1148,3188,2048,2048
1149,3191,2048,2048
1150,3194,2048,2048
1151,3197,2048,2048
1152,3200,2048,2048
1153,3202,2048,2048
1154,3205,2048,2048
1155,3208,2048,2048
1156,3211,2048,2048
1157,3213,2048,2048
1158,3216,2048,2048
1159,3219,2048,2048
1160,3222,2048,2048
1161,3225,2048,2048
1162,3227,2048,2048
1163,3230,2048,2048
1164,3233,2048,2048
1165,3236,2048,2048
1166,3238,2048,2048
1167,3241,2048,2048
1168,3244,2048,2048
1169,3247,2048,2048
1170,3250,2048,2048
1171,3252,2048,2048
1172,3255,2048,2048
1173,3258,2048,2048
1174,3261,2048,2048
1175,3263,2048,2048
1176,3266,2048,2048
1177,3269,2048,2048
1178,3272,2048,2048
1179,3275,2048,2048
1180,3277,2048,2048
1181,3280,2048,2048
1182,3283,2048,2048
1183,3286,2048,2048
1184,3288,2048,2048
1185,3291,2048,2048
1186,3294,2048,2048
1187,3297,2048,2048
1188,3300,2048,2048
1189,3302,2048,2048
1190,3305,2048,2048
1191,3308,2048,2048
1192,3311,2048,2048
1193,3313,2048,2048
1194,3316,2048,2048
1195,3319,2048,2048
1196,3322,2048,2048
1197,3325,2048,2048
1198,3327,2048,2048
1199,3330,2048,2048
1200,3333,2048,2048
1201,3336,2048,2048
1202,3338,2048,2048
1203,3341,2048,2048
1204,3344,2048,2048
1205,3347,2048,2048
1206,3350,2048,2048
1207,3352,2048,2048
1208,3355,2048,2048
1209,3358,2048,2048
1210,3361,2048,2048
1211,3363,2048,2048
1212,3366,2048,2048
1213,3369,2048,2048
1214,3372,2048,2048
1215,3375,2048,2048
1216,3377,2048,2048
1217,3380,2048,2048
1218,3383,2048,2048
1219,3386,2048,2048
1220,3388,2048,2048
1221,3391,2048,2048
1222,3394,2049,2049
1223,3397,2049,2049
1224,3400,2050,2050
1225,3402,2051,2051
1226,3405,2052,2052
1227,3408,2054,2054
1228,3411,2057,2057
1229,3413,2060,2060
1230,3416,2064,2064
1231,3419,2069,2069
1232,3422,2074,2074
1233,3425,2080,2080
1234,3427,2086,2086
1235,3430,2091,2091
1236,3433,2096,2096
1237,3436,2100,2100
1238,3438,2102,2102
1239,3441,2103,2103
1240,3444,2102,2102
1241,3447,2100,2100
1242,3450,2096,2096
1243,3452,2091,2091
1244,3455,2086,2086
1245,3458,2080,2080
1246,3461,2074,2074
1247,3463,2069,2069
1248,3466,2064,2064
1249,3469,2060,2060
1250,3472,2057,2057
1251,3475,2054,2054
1252,3477,2052,2052
1253,3480,2051,2051
1254,3483,2050,2050
1255,3486,2049,2049
1256,3488,2049,2049
1257,3491,2048,2048
1258,3494,2048,2048
1259,3497,2048,2048
1260,3500,2048,2048
1261,3502,2048,2048
1262,3505,2048,2048
1263,3508,2048,2048
1264,3511,2048,2048
1265,3513,2048,2048
1266,3516,2048,2048
1267,3519,2048,2048
1268,3522,2048,2048
1269,3525,2048,2048
1270,3527,2048,2048
1271,3530,2048,2048
1272,3533,2048,2048
1273,3536,2048,2048
1274,3538,2048,2048
1275,3541,2051,2051
1276,3544,2052,2052
1277,3547,2055,2055
1278,3550,2058,2058
1279,3552,2063,2063
1280,3555,2069,2069
1281,3558,2078,2078
1282,3561,2089,2089
1283,3563,2103,2103
1284,3566,2120,2120
1285,3569,2141,2141
1286,3572,2165,2165
1287,3575,2192,2192
1288,3577,2221,2221
1289,3580,2252,2252
1290,3583,2284,2284
1291,3586,2314,2314
1292,3588,2342,2342
1293,3591,2365,2365
1294,3594,2383,2383
1295,3597,2394,2394
1296,3600,2398,2398
1297,3602,2394,2394
1298,3605,2383,2383
1299,3608,2365,2365
1300,3611,2342,2342
1301,3613,2314,2314
1302,3616,2284,2284
1303,3619,2252,2252
1304,3622,2221,2221
1305,3625,2192,2192
1306,3627,2165,2165
1307,3630,2141,2141
1308,3633,2120,2120
1309,3636,2103,2103
1310,3638,2089,2089
1311,3641,2078,2078
1312,3644,2069,2069
1313,3647,2063,2063
1314,3650,2058,2058
1315,3652,2055,2055
1316,3655,2052,2052
1317,3658,2048,2048
1318,3661,2048,2048
1319,3663,2048,2048
1320,3666,2048,2048
1321,3669,2048,2048
1322,3672,2048,2048
1323,3675,2048,2048
1324,3677,2048,2048
1325,3680,2048,2048
1326,3683,2048,2048
1327,3686,2048,2048
1328,3688,2048,2048
1329,3691,2048,2048
1330,3694,2048,2048
1331,3697,2048,2048
1332,3700,2048,2048
1333,3702,2048,2048
1334,3705,2048,2048
1335,3708,2048,2048
1336,3711,2048,2048
1337,3713,2048,2048
1338,3716,2048,2048
1339,3719,2048,2048
1340,3722,2048,2048
1341,3725,2048,2048
1342,3727,2048,2048
1343,3730,2048,2048
1344,3733,2048,2048
1345,3736,2048,2048
1346,3738,2048,2048
1347,3741,2049,2049
1348,3744,2049,2049
1349,3747,2049,2049
1350,3750,2050,2050
1351,3752,2051,2051
1352,3755,2051,2051
1353,3758,2053,2053
1354,3761,2054,2054
1355,3763,2056,2056
1356,3766,2058,2058
1357,3769,2060,2060
1358,3772,2063,2063
1359,3775,2067,2067
1360,3777,2070,2070
1361,3780,2075,2075
1362,3783,2080,2080
1363,3786,2085,2085
1364,3788,2091,2091
1365,3791,2097,2097
1366,3794,2103,2103
1367,3797,2109,2109
1368,3800,2115,2115
1369,3802,2120,2120
1370,3805,2125,2125
1371,3808,2130,2130
1372,3811,2133,2133
1373,3813,2136,2136
1374,3816,2137,2137
1375,3819,2138,2138
1376,3822,2137,2137
1377,3825,2136,2136
1378,3827,2133,2133
1379,3830,2130,2130
1380,3833,2125,2125
1381,3836,2120,2120
1382,3838,2115,2115
1383,3841,2109,2109
1384,3844,2103,2103
1385,3847,2097,2097
1386,3850,2091,2091
1387,3852,2085,2085
1388,3855,2080,2080
1389,3858,2075,2075
1390,3861,2070,2070
1391,3863,2067,2067
1392,3866,2063,2063
1393,3869,2060,2060
1394,3872,2058,2058
1395,3875,2056,2056
1396,3877,2054,2054
1397,3880,2053,2053
1398,3883,2051,2051
1399,3886,2051,2051
1400,3888,2050,2050
1401,3891,2049,2049
1402,3894,2049,2049
1403,3897,2048,2048
1404,3900,2048,2048
1405,3902,2048,2048
1406,3905,2048,2048
1407,3908,2048,2048
1408,3911,2048,2048
1409,3913,2048,2048
1410,3916,2048,2048
1411,3919,2048,2048
1412,3922,2048,2048
1413,3925,2048,2048
1414,3927,2048,2048
1415,3930,2048,2048
1416,3933,2048,2048
1417,3936,2048,2048
1418,3938,2048,2048
1419,3941,2048,2048
1420,3944,2048,2048
1421,3947,2048,2048
1422,3950,2048,2048
1423,3952,2048,2048
1424,3955,2048,2048
1425,3958,2048,2048
1426,3961,2048,2048
1427,3963,2048,2048
1428,3966,2048,2048
1429,3969,2048,2048
1430,3972,2048,2048
1431,3975,2048,2048
1432,3977,2048,2048
1433,3980,2048,2048
1434,3983,2048,2048
1435,3986,2048,2048
1436,3988,2048,2048
1437,3991,2048,2048
1438,3994,2048,2048
1439,3997,2048,2048
1440,4000,2048,2048
1441,4002,2048,2048
1442,4005,2048,2048
1443,4008,2048,2048
1444,4011,2048,2048
1445,4013,2048,2048
1446,4016,2048,2048
1447,4019,2048,2048
1448,4022,2048,2048
1449,4025,2048,2048
1450,4027,2048,2048
1451,4030,2048,2048
1452,4033,2048,2048
1453,4036,2048,2048
1454,4038,2048,2048
1455,4041,2048,2048
1456,4044,2048,2048
1457,4047,2048,2048
1458,4050,2048,2048
1459,4052,2048,2048
1460,4055,2048,2048
1461,4058,2048,2048
1462,4061,2048,2048
1463,4063,2048,2048
1464,4066,2048,2048
1465,4069,2048,2048
1466,4072,2048,2048
1467,4075,2048,2048
1468,4077,2048,2048
1469,4080,2048,2048
1470,4083,2048,2048
1471,4086,2048,2048
1472,4088,2048,2048
1473,4091,2048,2048
1474,4094,2048,2048
1475,4097,2048,2048
1476,4100,2048,2048
1477,4102,2048,2048
1478,4105,2048,2048
1479,4108,2048,2048
1480,4111,2048,2048
1481,4113,2048,2048
1482,4116,2048,2048
1483,4119,2048,2048
1484,4122,2048,2048
1485,4125,2048,2048
1486,4127,2048,2048
1487,4130,2048,2048
1488,4133,2048,2048
1489,4136,2048,2048
1490,4138,2048,2048
1491,4141,2048,2048
1492,4144,2048,2048
1493,4147,2048,2048
1494,4150,2048,2048
1495,4152,2048,2048
1496,4155,2048,2048
1497,4158,2048,2048
1498,4161,2048,2048
1499,4163,2048,2048
1500,4166,2048,2048
1501,4169,2048,2048
1502,4172,2048,2048
1503,4175,2048,2048
1504,4177,2048,2048
1505,4180,2048,2048
1506,4183,2048,2048
1507,4186,2048,2048
1508,4188,2048,2048
1509,4191,2048,2048
1510,4194,2049,2049
1511,4197,2049,2049
1512,4200,2050,2050
1513,4202,2051,2051
1514,4205,2052,2052
1515,4208,2054,2054
1516,4211,2057,2057
1517,4213,2060,2060
1518,4216,2064,2064
1519,4219,2069,2069
1520,4222,2074,2074
1521,4225,2080,2080
1522,4227,2086,2086
1523,4230,2091,2091
1524,4233,2096,2096
1525,4236,2100,2100
1526,4238,2102,2102
1527,4241,2103,2103
1528,4244,2102,2102
1529,4247,2100,2100
1530,4250,2096,2096
1531,4252,2091,2091
1532,4255,2086,2086
1533,4258,2080,2080
1534,4261,2074,2074
1535,4263,2069,2069
1536,4266,2064,2064
1537,4269,2060,2060
1538,4272,2057,2057
1539,4275,2054,2054
1540,4277,2052,2052
1541,4280,2051,2051
1542,4283,2050,2050
1543,4286,2049,2049
1544,4288,2049,2049
1545,4291,2048,2048
1546,4294,2048,2048
1547,4297,2048,2048
1548,4300,2048,2048
1549,4302,2048,2048
1550,4305,2048,2048
1551,4308,2048,2048
1552,4311,2048,2048
1553,4313,2048,2048
1554,4316,2048,2048
1555,4319,2048,2048
1556,4322,2048,2048
1557,4325,2048,2048
1558,4327,2048,2048
1559,4330,2048,2048
1560,4333,2048,2048
1561,4336,2048,2048
1562,4338,2048,2048
1563,4341,2051,2051
1564,4344,2052,2052
1565,4347,2055,2055
1566,4350,2058,2058
1567,4352,2063,2063
1568,4355,2069,2069
1569,4358,2078,2078
1570,4361,2089,2089
1571,4363,2103,2103
1572,4366,2120,2120
1573,4369,2141,2141
1574,4372,2165,2165
1575,4375,2192,2192
1576,4377,2221,2221
1577,4380,2252,2252
1578,4383,2284,2284
1579,4386,2314,2314
1580,4388,2342,2342
1581,4391,2365,2365
1582,4394,2383,2383
1583,4397,2394,2394
1584,4400,2398,2398
1585,4402,2394,2394
1586,4405,2383,2383
1587,4408,2365,2365
1588,4411,2342,2342
1589,4413,2314,2314
1590,4416,2284,2284
1591,4419,2252,2252
1592,4422,2221,2221
1593,4425,2192,2192
1594,4427,2165,2165
1595,4430,2141,2141
1596,4433,2120,2120
1597,4436,2103,2103
1598,4438,2089,2089
1599,4441,2078,2078
1600,4444,2069,2069
1601,4447,2063,2063
1602,4450,2058,2058
1603,4452,2055,2055
1604,4455,2052,2052
1605,4458,2048,2048
1606,4461,2048,2048
1607,4463,2048,2048
1608,4466,2048,2048
1609,4469,2048,2048
1610,4472,2048,2048
1611,4475,2048,2048
1612,4477,2048,2048
1613,4480,2048,2048
1614,4483,2048,2048
1615,4486,2048,2048
1616,4488,2048,2048
1617,4491,2048,2048
1618,4494,2048,2048
1619,4497,2048,2048
1620,4500,2048,2048
1621,4502,2048,2048
1622,4505,2048,2048
1623,4508,2048,2048
1624,4511,2048,2048
1625,4513,2048,2048
1626,4516,2048,2048
1627,4519,2048,2048
1628,4522,2048,2048
1629,4525,2048,2048
1630,4527,2048,2048
1631,4530,2048,2048
1632,4533,2048,2048
1633,4536,2048,2048
1634,4538,2048,2048
1635,4541,2049,2049
1636,4544,2049,2049
1637,4547,2049,2049
1638,4550,2050,2050
1639,4552,2051,2051
1640,4555,2051,2051
1641,4558,2053,2053
1642,4561,2054,2054
1643,4563,2056,2056
1644,4566,2058,2058
1645,4569,2060,2060
1646,4572,2063,2063
1647,4575,2067,2067
1648,4577,2070,2070
1649,4580,2075,2075
1650,4583,2080,2080
1651,4586,2085,2085
1652,4588,2091,2091
1653,4591,2097,2097
1654,4594,2103,2103
1655,4597,2109,2109
1656,4600,2115,2115
1657,4602,2120,2120
1658,4605,2125,2125
1659,4608,2130,2130
1660,4611,2133,2133
1661,4613,2136,2136
1662,4616,2137,2137
1663,4619,2138,2138
1664,4622,2137,2137
1665,4625,2136,2136
1666,4627,2133,2133
1667,4630,2130,2130
1668,4633,2125,2125
1669,4636,2120,2120
1670,4638,2115,2115
1671,4641,2109,2109
1672,4644,2103,2103
1673,4647,2097,2097
1674,4650,2091,2091
1675,4652,2085,2085
1676,4655,2080,2080
1677,4658,2075,2075
1678,4661,2070,2070
1679,4663,2067,2067
1680,4666,2063,2063
1681,4669,2060,2060
1682,4672,2058,2058
1683,4675,2056,2056
1684,4677,2054,2054
1685,4680,2053,2053
1686,4683,2051,2051
1687,4686,2051,2051
1688,4688,2050,2050
1689,4691,2049,2049
1690,4694,2049,2049
1691,4697,2048,2048
1692,4700,2048,2048
1693,4702,2048,2048
1694,4705,2048,2048
1695,4708,2048,2048
1696,4711,2048,2048
1697,4713,2048,2048
1698,4716,2048,2048
1699,4719,2048,2048
1700,4722,2048,2048
1701,4725,2048,2048
1702,4727,2048,2048
1703,4730,2048,2048
1704,4733,2048,2048
1705,4736,2048,2048
1706,4738,2048,2048
1707,4741,2048,2048
1708,4744,2048,2048
1709,4747,2048,2048
1710,4750,2048,2048
1711,4752,2048,2048
1712,4755,2048,2048
1713,4758,2048,2048
1714,4761,2048,2048
1715,4763,2048,2048
1716,4766,2048,2048
1717,4769,2048,2048
1718,4772,2048,2048
1719,4775,2048,2048
1720,4777,2048,2048
1721,4780,2048,2048
1722,4783,2048,2048
1723,4786,2048,2048
1724,4788,2048,2048
1725,4791,2048,2048
1726,4794,2048,2048
1727,4797,2048,2048
1728,4800,2048,2048
1729,4802,2048,2048
1730,4805,2048,2048
1731,4808,2048,2048
1732,4811,2048,2048
1733,4813,2048,2048
1734,4816,2048,2048
1735,4819,2048,2048
1736,4822,2048,2048
1737,4825,2048,2048
1738,4827,2048,2048
1739,4830,2048,2048
1740,4833,2048,2048
1741,4836,2048,2048
1742,4838,2048,2048
1743,4841,2048,2048
1744,4844,2048,2048
1745,4847,2048,2048
1746,4850,2048,2048
1747,4852,2048,2048
1748,4855,2048,2048
1749,4858,2048,2048
1750,4861,2048,2048
1751,4863,2048,2048
1752,4866,2048,2048
1753,4869,2048,2048
1754,4872,2048,2048
1755,4875,2048,2048
1756,4877,2048,2048
1757,4880,2048,2048
1758,4883,2048,2048
1759,4886,2048,2048
1760,4888,2048,2048
1761,4891,2048,2048
1762,4894,2048,2048
1763,4897,2048,2048
1764,4900,2048,2048
1765,4902,2048,2048
1766,4905,2048,2048
1767,4908,2048,2048
1768,4911,2048,2048
1769,4913,2048,2048
1770,4916,2048,2048
1771,4919,2048,2048
1772,4922,2048,2048
1773,4925,2048,2048
1774,4927,2048,2048
1775,4930,2048,2048
1776,4933,2048,2048
1777,4936,2048,2048
1778,4938,2048,2048
1779,4941,2048,2048
1780,4944,2048,2048
1781,4947,2048,2048
1782,4950,2048,2048
1783,4952,2048,2048
1784,4955,2048,2048
1785,4958,2048,2048
1786,4961,2048,2048
1787,4963,2048,2048
1788,4966,2048,2048
1789,4969,2048,2048
1790,4972,2048,2048
1791,4975,2048,2048
1792,4977,2048,2048
1793,4980,2048,2048
1794,4983,2048,2048
1795,4986,2048,2048
1796,4988,2048,2048
1797,4991,2048,2048
1798,4994,2048,2048
1799,4997,2048,2048
1800,5000,2049,2049
1801,5002,2049,2049
1802,5005,2050,2050
1803,5008,2051,2051
1804,5011,2052,2052
1805,5013,2054,2054
1806,5016,2057,2057
1807,5019,2060,2060
1808,5022,2064,2064
1809,5025,2069,2069
1810,5027,2074,2074
1811,5030,2080,2080
1812,5033,2086,2086
1813,5036,2091,2091
1814,5038,2096,2096
1815,5041,2100,2100
1816,5044,2102,2102
1817,5047,2103,2103
1818,5050,2102,2102
1819,5052,2100,2100
1820,5055,2096,2096
1821,5058,2091,2091
1822,5061,2086,2086
1823,5063,2080,2080
1824,5066,2074,2074
1825,5069,2069,2069
1826,5072,2064,2064
1827,5075,2060,2060
1828,5077,2057,2057
1829,5080,2054,2054
1830,5083,2052,2052
1831,5086,2051,2051
1832,5088,2050,2050
1833,5091,2049,2049
1834,5094,2049,2049
1835,5097,2048,2048
1836,5100,2054,2054
1837,5102,2056,2056
1838,5105,2058,2058
1839,5108,2061,2061
1840,5111,2064,2064
1841,5113,2069,2069
1842,5116,2074,2074
1843,5119,2080,2080
1844,5122,2088,2088
1845,5125,2097,2097
1846,5127,2108,2108
1847,5130,2121,2121
1848,5133,2135,2135
1849,5136,2152,2152
1850,5138,2171,2171
1851,5141,2192,2192
1852,5144,2216,2216
1853,5147,2243,2243
1854,5150,2272,2272
1855,5152,2303,2303
1856,5155,2336,2336
1857,5158,2372,2372
1858,5161,2409,2409
1859,5163,2447,2447
1860,5166,2486,2486
1861,5169,2525,2525
1862,5172,2564,2564
1863,5175,2602,2602
1864,5177,2639,2639
1865,5180,2673,2673
1866,5183,2704,2704
1867,5186,2731,2731
1868,5188,2754,2754
1869,5191,2773,2773
1870,5194,2787,2787
1871,5197,2795,2795
1872,5200,2798,2798
1873,5202,2795,2795
1874,5205,2787,2787
1875,5208,2773,2773
1876,5211,2754,2754
1877,5213,2731,2731
1878,5216,2704,2704
1879,5219,2673,2673
1880,5222,2639,2639
1881,5225,2602,2602
1882,5227,2564,2564
1883,5230,2525,2525
1884,5233,2486,2486
1885,5236,2447,2447
1886,5238,2409,2409
1887,5241,2372,2372
1888,5244,2336,2336
1889,5247,2303,2303
1890,5250,2272,2272
1891,5252,2243,2243
1892,5255,2216,2216
1893,5258,2192,2192
1894,5261,2171,2171
1895,5263,2152,2152
1896,5266,2135,2135
1897,5269,2121,2121
1898,5272,2108,2108
1899,5275,2097,2097
1900,5277,2088,2088
1901,5280,2080,2080
1902,5283,2074,2074
1903,5286,2069,2069
1904,5288,2064,2064
1905,5291,2061,2061
1906,5294,2058,2058
1907,5297,2056,2056
1908,5300,2048,2048
1909,5302,2048,2048
1910,5305,2048,2048
1911,5308,2048,2048
1912,5311,2048,2048
1913,5313,2048,2048
1914,5316,2048,2048
1915,5319,2048,2048
1916,5322,2048,2048
1917,5325,2048,2048
1918,5327,2048,2048
1919,5330,2048,2048
1920,5333,2048,2048
1921,5336,2048,2048
1922,5338,2048,2048
1923,5341,2049,2049
1924,5344,2049,2049
1925,5347,2049,2049
1926,5350,2050,2050
1927,5352,2051,2051
1928,5355,2051,2051
1929,5358,2053,2053
1930,5361,2054,2054
1931,5363,2056,2056
1932,5366,2058,2058
1933,5369,2060,2060
1934,5372,2063,2063
1935,5375,2067,2067
1936,5377,2070,2070
1937,5380,2075,2075
1938,5383,2080,2080
1939,5386,2085,2085
1940,5388,2091,2091
1941,5391,2097,2097
1942,5394,2103,2103
1943,5397,2109,2109
1944,5400,2115,2115
1945,5402,2120,2120
1946,5405,2125,2125
1947,5408,2130,2130
1948,5411,2133,2133
1949,5413,2136,2136
1950,5416,2137,2137
1951,5419,2138,2138
1952,5422,2137,2137
1953,5425,2136,2136
1954,5427,2133,2133
1955,5430,2130,2130
1956,5433,2125,2125
1957,5436,2120,2120
1958,5438,2115,2115
1959,5441,2109,2109
1960,5444,2103,2103
1961,5447,2097,2097
1962,5450,2091,2091
1963,5452,2085,2085
1964,5455,2080,2080
1965,5458,2075,2075
1966,5461,2070,2070
1967,5463,2067,2067
1968,5466,2063,2063
1969,5469,2060,2060
1970,5472,2058,2058
1971,5475,2056,2056
1972,5477,2054,2054
1973,5480,2053,2053
1974,5483,2051,2051
1975,5486,2051,2051
1976,5488,2050,2050
1977,5491,2049,2049
1978,5494,2049,2049
1979,5497,2048,2048
1980,5500,2048,2048
1981,5502,2048,2048
1982,5505,2048,2048
1983,5508,2048,2048
1984,5511,2048,2048
1985,5513,2048,2048
1986,5516,2048,2048
1987,5519,2048,2048
1988,5522,2048,2048
1989,5525,2048,2048
1990,5527,2048,2048
1991,5530,2048,2048
1992,5533,2048,2048
1993,5536,2048,2048
1994,5538,2048,2048
1995,5541,2048,2048
1996,5544,2048,2048
1997,5547,2048,2048
1998,5550,2048,2048
1999,5552,2048,2048
2000,5555,2048,2048
2001,5558,2048,2048
2002,5561,2048,2048
2003,5563,2048,2048
2004,5566,2048,2048
2005,5569,2048,2048
2006,5572,2048,2048
2007,5575,2048,2048
2008,5577,2048,2048
2009,5580,2048,2048
2010,5583,2048,2048
2011,5586,2048,2048
2012,5588,2048,2048
2013,5591,2048,2048
2014,5594,2048,2048
2015,5597,2048,2048
2016,5600,2048,2048
2017,5602,2048,2048
2018,5605,2048,2048
2019,5608,2048,2048
2020,5611,2048,2048
2021,5613,2048,2048
2022,5616,2048,2048
2023,5619,2048,2048
2024,5622,2048,2048
2025,5625,2048,2048
2026,5627,2048,2048
2027,5630,2048,2048
2028,5633,2048,2048
2029,5636,2048,2048
2030,5638,2048,2048
2031,5641,2048,2048
2032,5644,2048,2048
2033,5647,2048,2048
2034,5650,2048,2048
2035,5652,2048,2048
2036,5655,2048,2048
2037,5658,2048,2048
2038,5661,2048,2048
2039,5663,2048,2048
2040,5666,2048,2048
2041,5669,2048,2048
2042,5672,2048,2048
2043,5675,2048,2048
2044,5677,2048,2048
2045,5680,2048,2048
2046,5683,2048,2048
2047,5686,2048,2048
2048,5688,2048,2048
2049,5691,2048,2048
2050,5694,2048,2048
2051,5697,2048,2048
2052,5700,2048,2048
2053,5702,2048,2048
2054,5705,2048,2048
2055,5708,2048,2048
2056,5711,2048,2048
2057,5713,2048,2048
2058,5716,2048,2048
2059,5719,2048,2048
2060,5722,2048,2048
2061,5725,2048,2048
2062,5727,2048,2048
2063,5730,2048,2048
2064,5733,2048,2048
2065,5736,2048,2048
2066,5738,2048,2048
2067,5741,2048,2048
2068,5744,2048,2048
2069,5747,2048,2048
2070,5750,2048,2048
2071,5752,2048,2048
2072,5755,2048,2048
2073,5758,2048,2048
2074,5761,2048,2048
2075,5763,2048,2048
2076,5766,2048,2048
2077,5769,2048,2048
2078,5772,2048,2048
2079,5775,2048,2048
2080,5777,2048,2048
2081,5780,2048,2048
2082,5783,2048,2048
2083,5786,2048,2048
2084,5788,2048,2048
2085,5791,2048,2048
2086,5794,2048,2048
2087,5797,2048,2048
2088,5800,2049,2049
2089,5802,2049,2049
2090,5805,2050,2050
2091,5808,2051,2051
2092,5811,2052,2052
2093,5813,2054,2054
2094,5816,2057,2057
2095,5819,2060,2060
2096,5822,2064,2064
2097,5825,2069,2069
2098,5827,2074,2074
2099,5830,2080,2080
2100,5833,2086,2086
2101,5836,2091,2091
2102,5838,2096,2096
2103,5841,2100,2100
2104,5844,2102,2102
2105,5847,2103,2103
2106,5850,2102,2102
2107,5852,2100,2100
2108,5855,2096,2096
2109,5858,2091,2091
2110,5861,2086,2086
2111,5863,2080,2080
2112,5866,2074,2074
2113,5869,2069,2069
2114,5872,2064,2064
2115,5875,2060,2060
2116,5877,2057,2057
2117,5880,2054,2054
2118,5883,2052,2052
2119,5886,2051,2051
2120,5888,2050,2050
2121,5891,2049,2049
2122,5894,2049,2049
2123,5897,2048,2048
2124,5900,2054,2054
2125,5902,2056,2056
2126,5905,2058,2058
2127,5908,2061,2061
2128,5911,2064,2064
2129,5913,2069,2069
2130,5916,2074,2074
2131,5919,2080,2080
2132,5922,2088,2088
2133,5925,2097,2097
2134,5927,2108,2108
2135,5930,2121,2121
2136,5933,2135,2135
2137,5936,2152,2152
2138,5938,2171,2171
2139,5941,2192,2192
2140,5944,2216,2216
2141,5947,2243,2243
2142,5950,2272,2272
2143,5952,2303,2303
2144,5955,2336,2336
2145,5958,2372,2372
2146,5961,2409,2409
2147,5963,2447,2447
2148,5966,2486,2486
2149,5969,2525,2525
2150,5972,2564,2564
2151,5975,2602,2602
2152,5977,2639,2639
2153,5980,2673,2673
2154,5983,2704,2704
2155,5986,2731,2731
2156,5988,2754,2754
2157,5991,2773,2773
2158,5994,2787,2787
2159,5997,2795,2795
2160,6000,2798,2798
2161,6002,2795,2795
2162,6005,2787,2787
2163,6008,2773,2773
2164,6011,2754,2754
2165,6013,2731,2731
2166,6016,2704,2704
2167,6019,2673,2673
2168,6022,2639,2639
2169,6025,2602,2602
2170,6027,2564,2564
2171,6030,2525,2525
2172,6033,2486,2486
2173,6036,2447,2447
2174,6038,2409,2409
2175,6041,2372,2372
2176,6044,2336,2336
2177,6047,2303,2303
2178,6050,2272,2272
2179,6052,2243,2243
2180,6055,2216,2216
2181,6058,2192,2192
2182,6061,2171,2171
2183,6063,2152,2152
2184,6066,2135,2135
2185,6069,2121,2121
2186,6072,2108,2108
2187,6075,2097,2097
2188,6077,2088,2088
2189,6080,2080,2080
2190,6083,2074,2074
2191,6086,2069,2069
2192,6088,2064,2064
2193,6091,2061,2061
2194,6094,2058,2058
2195,6097,2056,2056
2196,6100,2048,2048
2197,6102,2048,2048
2198,6105,2048,2048
2199,6108,2048,2048
2200,6111,2048,2048
2201,6113,2048,2048
2202,6116,2048,2048
2203,6119,2048,2048
2204,6122,2048,2048
2205,6125,2048,2048
2206,6127,2048,2048
2207,6130,2048,2048
2208,6133,2048,2048
2209,6136,2048,2048
2210,6138,2048,2048
2211,6141,2049,2049
2212,6144,2049,2049
2213,6147,2049,2049
2214,6150,2050,2050
2215,6152,2051,2051
2216,6155,2051,2051
2217,6158,2053,2053
2218,6161,2054,2054
2219,6163,2056,2056
2220,6166,2058,2058
2221,6169,2060,2060
2222,6172,2063,2063
2223,6175,2067,2067
2224,6177,2070,2070
2225,6180,2075,2075
2226,6183,2080,2080
2227,6186,2085,2085
2228,6188,2091,2091
2229,6191,2097,2097
2230,6194,2103,2103
2231,6197,2109,2109
2232,6200,2115,2115
2233,6202,2120,2120
2234,6205,2125,2125
2235,6208,2130,2130
2236,6211,2133,2133
2237,6213,2136,2136
2238,6216,2137,2137
2239,6219,2138,2138
2240,6222,2137,2137
2241,6225,2136,2136
2242,6227,2133,2133
2243,6230,2130,2130
2244,6233,2125,2125
2245,6236,2120,2120
2246,6238,2115,2115
2247,6241,2109,2109
2248,6244,2103,2103
2249,6247,2097,2097
2250,6250,2091,2091
2251,6252,2085,2085
2252,6255,2080,2080
2253,6258,2075,2075
2254,6261,2070,2070
2255,6263,2067,2067
2256,6266,2063,2063
2257,6269,2060,2060
2258,6272,2058,2058
2259,6275,2056,2056
2260,6277,2054,2054
2261,6280,2053,2053
2262,6283,2051,2051
2263,6286,2051,2051
2264,6288,2050,2050
2265,6291,2049,2049
2266,6294,2049,2049
2267,6297,2048,2048
2268,6300,2048,2048
2269,6302,2048,2048
2270,6305,2048,2048
2271,6308,2048,2048
2272,6311,2048,2048
2273,6313,2048,2048
2274,6316,2048,2048
2275,6319,2048,2048
2276,6322,2048,2048
2277,6325,2048,2048
2278,6327,2048,2048
2279,6330,2048,2048
2280,6333,2048,2048
2281,6336,2048,2048
2282,6338,2048,2048
2283,6341,2048,2048
2284,6344,2048,2048
2285,6347,2048,2048
2286,6350,2048,2048
2287,6352,2048,2048
2288,6355,2048,2048
2289,6358,2048,2048
2290,6361,2048,2048
2291,6363,2048,2048
2292,6366,2048,2048
2293,6369,2048,2048
2294,6372,2048,2048
2295,6375,2048,2048
2296,6377,2048,2048
2297,6380,2048,2048
2298,6383,2048,2048
2299,6386,2048,2048
2300,6388,2048,2048
2301,6391,2048,2048
2302,6394,2048,2048
2303,6397,2048,2048
2304,6400,2048,2048
2305,6402,2048,2048
2306,6405,2048,2048
2307,6408,2048,2048
2308,6411,2048,2048
2309,6413,2048,2048
2310,6416,2048,2048
2311,6419,2048,2048
2312,6422,2048,2048
2313,6425,2048,2048
2314,6427,2048,2048
2315,6430,2048,2048
2316,6433,2048,2048
2317,6436,2048,2048
2318,6438,2048,2048
2319,6441,2048,2048
2320,6444,2048,2048
2321,6447,2048,2048
2322,6450,2048,2048
2323,6452,2048,2048
2324,6455,2048,2048
2325,6458,2048,2048
2326,6461,2048,2048
2327,6463,2048,2048
2328,6466,2048,2048
2329,6469,2048,2048
2330,6472,2048,2048
2331,6475,2048,2048
2332,6477,2048,2048
2333,6480,2048,2048
2334,6483,2048,2048
2335,6486,2048,2048
2336,6488,2048,2048
2337,6491,2048,2048
2338,6494,2048,2048
2339,6497,2048,2048
2340,6500,2048,2048
2341,6502,2048,2048
2342,6505,2048,2048
2343,6508,2048,2048
2344,6511,2048,2048
2345,6513,2048,2048
2346,6516,2048,2048
2347,6519,2048,2048
2348,6522,2048,2048
2349,6525,2048,2048
2350,6527,2048,2048
2351,6530,2048,2048
2352,6533,2048,2048
2353,6536,2048,2048
2354,6538,2048,2048
2355,6541,2048,2048
2356,6544,2048,2048
2357,6547,2048,2048
2358,6550,2048,2048
2359,6552,2048,2048
2360,6555,2048,2048
2361,6558,2048,2048
2362,6561,2048,2048
2363,6563,2048,2048
2364,6566,2048,2048
2365,6569,2048,2048
2366,6572,2048,2048
2367,6575,2048,2048
2368,6577,2048,2048
2369,6580,2048,2048
2370,6583,2048,2048
2371,6586,2048,2048
2372,6588,2048,2048
2373,6591,2048,2048
2374,6594,2048,2048
2375,6597,2048,2048
2376,6600,2049,2049
2377,6602,2049,2049
2378,6605,2050,2050
2379,6608,2051,2051
2380,6611,2052,2052
2381,6613,2054,2054
2382,6616,2057,2057
2383,6619,2060,2060
2384,6622,2064,2064
2385,6625,2069,2069
2386,6627,2074,2074
2387,6630,2080,2080
2388,6633,2086,2086
2389,6636,2091,2091
2390,6638,2096,2096
2391,6641,2100,2100
2392,6644,2102,2102
2393,6647,2103,2103
2394,6650,2102,2102
2395,6652,2100,2100
2396,6655,2096,2096
2397,6658,2091,2091
2398,6661,2086,2086
2399,6663,2080,2080
2400,6666,2074,2074
2401,6669,2069,2069
2402,6672,2064,2064
2403,6675,2060,2060
2404,6677,2057,2057
2405,6680,2054,2054
2406,6683,2052,2052
2407,6686,2051,2051
2408,6688,2050,2050
2409,6691,2049,2049
2410,6694,2049,2049
2411,6697,2048,2048
2412,6700,2054,2054
2413,6702,2056,2056
2414,6705,2058,2058
2415,6708,2061,2061
2416,6711,2064,2064
2417,6713,2069,2069
2418,6716,2074,2074
2419,6719,2080,2080
2420,6722,2088,2088
2421,6725,2097,2097
2422,6727,2108,2108
2423,6730,2121,2121
2424,6733,2135,2135
2425,6736,2152,2152
2426,6738,2171,2171
2427,6741,2192,2192
2428,6744,2216,2216
2429,6747,2243,2243
2430,6750,2272,2272
2431,6752,2303,2303
2432,6755,2336,2336
2433,6758,2372,2372
2434,6761,2409,2409
2435,6763,2447,2447
2436,6766,2486,2486
2437,6769,2525,2525
2438,6772,2564,2564
2439,6775,2602,2602
2440,6777,2639,2639
2441,6780,2673,2673
2442,6783,2704,2704
2443,6786,2731,2731
2444,6788,2754,2754
2445,6791,2773,2773
2446,6794,2787,2787
2447,6797,2795,2795
2448,6800,2798,2798
2449,6802,2795,2795
2450,6805,2787,2787
2451,6808,2773,2773
2452,6811,2754,2754
2453,6813,2731,2731
2454,6816,2704,2704
2455,6819,2673,2673
2456,6822,2639,2639
2457,6825,2602,2602
2458,6827,2564,2564
2459,6830,2525,2525
2460,6833,2486,2486
2461,6836,2447,2447
2462,6838,2409,2409
2463,6841,2372,2372
2464,6844,2336,2336
2465,6847,2303,2303
2466,6850,2272,2272
2467,6852,2243,2243
2468,6855,2216,2216
2469,6858,2192,2192
2470,6861,2171,2171
2471,6863,2152,2152
2472,6866,2135,2135
2473,6869,2121,2121
2474,6872,2108,2108
2475,6875,2097,2097
2476,6877,2088,2088
2477,6880,2080,2080
2478,6883,2074,2074
2479,6886,2069,2069
2480,6888,2064,2064
2481,6891,2061,2061
2482,6894,2058,2058
2483,6897,2056,2056
2484,6900,2048,2048
2485,6902,2048,2048
2486,6905,2048,2048
2487,6908,2048,2048
2488,6911,2048,2048
2489,6913,2048,2048
2490,6916,2048,2048
2491,6919,2048,2048
2492,6922,2048,2048
2493,6925,2048,2048
2494,6927,2048,2048
2495,6930,2048,2048
2496,6933,2048,2048
2497,6936,2048,2048
2498,6938,2048,2048
2499,6941,2049,2049
2500,6944,2049,2049
2501,6947,2049,2049
2502,6950,2050,2050
2503,6952,2051,2051
2504,6955,2051,2051
2505,6958,2053,2053
2506,6961,2054,2054
2507,6963,2056,2056
2508,6966,2058,2058
2509,6969,2060,2060
2510,6972,2063,2063
2511,6975,2067,2067
2512,6977,2070,2070
2513,6980,2075,2075
2514,6983,2080,2080
2515,6986,2085,2085
2516,6988,2091,2091
2517,6991,2097,2097
2518,6994,2103,2103
2519,6997,2109,2109
2520,7000,2115,2115
2521,7002,2120,2120
2522,7005,2125,2125
2523,7008,2130,2130
2524,7011,2133,2133
2525,7013,2136,2136
2526,7016,2137,2137
2527,7019,2138,2138
2528,7022,2137,2137
2529,7025,2136,2136
2530,7027,2133,2133
2531,7030,2130,2130
2532,7033,2125,2125
2533,7036,2120,2120
2534,7038,2115,2115
2535,7041,2109,2109
2536,7044,2103,2103
2537,7047,2097,2097
2538,7050,2091,2091
2539,7052,2085,2085
2540,7055,2080,2080
2541,7058,2075,2075
2542,7061,2070,2070
2543,7063,2067,2067
2544,7066,2063,2063
2545,7069,2060,2060
2546,7072,2058,2058
2547,7075,2056,2056
2548,7077,2054,2054
2549,7080,2053,2053
2550,7083,2051,2051
2551,7086,2051,2051
2552,7088,2050,2050
2553,7091,2049,2049
2554,7094,2049,2049
2555,7097,2048,2048
2556,7100,2048,2048
2557,7102,2048,2048
2558,7105,2048,2048
2559,7108,2048,2048
2560,7111,2048,2048
2561,7113,2048,2048
2562,7116,2048,2048
2563,7119,2048,2048
2564,7122,2048,2048
2565,7125,2048,2048
2566,7127,2048,2048
2567,7130,2048,2048
2568,7133,2048,2048
2569,7136,2048,2048
2570,7138,2048,2048
2571,7141,2048,2048
2572,7144,2048,2048
2573,7147,2048,2048
2574,7150,2048,2048
2575,7152,2048,2048
2576,7155,2048,2048
2577,7158,2048,2048
2578,7161,2048,2048
2579,7163,2048,2048
2580,7166,2048,2048
2581,7169,2048,2048
2582,7172,2048,2048
2583,7175,2048,2048
2584,7177,2048,2048
2585,7180,2048,2048
2586,7183,2048,2048
2587,7186,2048,2048
2588,7188,2048,2048
2589,7191,2048,2048
2590,7194,2048,2048
2591,7197,2048,2048
2592,7200,2048,2048
2593,7202,2048,2048
2594,7205,2048,2048
2595,7208,2048,2048
2596,7211,2048,2048
2597,7213,2048,2048
2598,7216,2048,2048
2599,7219,2048,2048
2600,7222,2048,2048
2601,7225,2048,2048
2602,7227,2048,2048
2603,7230,2048,2048
2604,7233,2048,2048
2605,7236,2048,2048
2606,7238,2048,2048
2607,7241,2048,2048
2608,7244,2048,2048
2609,7247,2048,2048
2610,7250,2048,2048
2611,7252,2048,2048
2612,7255,2048,2048
2613,7258,2048,2048
2614,7261,2048,2048
2615,7263,2048,2048
2616,7266,2048,2048
2617,7269,2048,2048
2618,7272,2048,2048
2619,7275,2048,2048
2620,7277,2048,2048
2621,7280,2048,2048
2622,7283,2048,2048
2623,7286,2048,2048
2624,7288,2048,2048
2625,7291,2048,2048
2626,7294,2048,2048
2627,7297,2048,2048
2628,7300,2048,2048
2629,7302,2048,2048
2630,7305,2048,2048
2631,7308,2048,2048
2632,7311,2048,2048
2633,7313,2048,2048
2634,7316,2048,2048
2635,7319,2048,2048
2636,7322,2048,2048
2637,7325,2048,2048
2638,7327,2048,2048
2639,7330,2048,2048
2640,7333,2048,2048
2641,7336,2048,2048
2642,7338,2048,2048
2643,7341,2048,2048
2644,7344,2048,2048
2645,7347,2048,2048
2646,7350,2048,2048
2647,7352,2048,2048
2648,7355,2048,2048
2649,7358,2048,2048
2650,7361,2048,2048
2651,7363,2048,2048
2652,7366,2048,2048
2653,7369,2048,2048
2654,7372,2048,2048
2655,7375,2048,2048
2656,7377,2048,2048
2657,7380,2048,2048
2658,7383,2048,2048
2659,7386,2048,2048
2660,7388,2048,2048
2661,7391,2048,2048
2662,7394,2048,2048
2663,7397,2048,2048
2664,7400,2049,2049
2665,7402,2049,2049
2666,7405,2050,2050
2667,7408,2051,2051
2668,7411,2052,2052
2669,7413,2054,2054
2670,7416,2057,2057
2671,7419,2060,2060
2672,7422,2064,2064
2673,7425,2069,2069
2674,7427,2074,2074
2675,7430,2080,2080
2676,7433,2086,2086
2677,7436,2091,2091
2678,7438,2096,2096
2679,7441,2100,2100
2680,7444,2102,2102
2681,7447,2103,2103
2682,7450,2102,2102
2683,7452,2100,2100
2684,7455,2096,2096
2685,7458,2091,2091
2686,7461,2086,2086
2687,7463,2080,2080
2688,7466,2074,2074
2689,7469,2069,2069
2690,7472,2064,2064
2691,7475,2060,2060
2692,7477,2057,2057
2693,7480,2054,2054
2694,7483,2052,2052
2695,7486,2051,2051
2696,7488,2050,2050
2697,7491,2049,2049
2698,7494,2049,2049
2699,7497,2048,2048
2700,7500,2054,2054
2701,7502,2056,2056
2702,7505,2058,2058
2703,7508,2061,2061
2704,7511,2064,2064
2705,7513,2069,2069
2706,7516,2074,2074
2707,7519,2080,2080
2708,7522,2088,2088
2709,7525,2097,2097
2710,7527,2108,2108
2711,7530,2121,2121
2712,7533,2135,2135
2713,7536,2152,2152
2714,7538,2171,2171
2715,7541,2192,2192
2716,7544,2216,2216
2717,7547,2243,2243
2718,7550,2272,2272
2719,7552,2303,2303
2720,7555,2336,2336
2721,7558,2372,2372
2722,7561,2409,2409
2723,7563,2447,2447
2724,7566,2486,2486
2725,7569,2525,2525
2726,7572,2564,2564
2727,7575,2602,2602
2728,7577,2639,2639
2729,7580,2673,2673
2730,7583,2704,2704
2731,7586,2731,2731
2732,7588,2754,2754
2733,7591,2773,2773
2734,7594,2787,2787
2735,7597,2795,2795
2736,7600,2798,2798
2737,7602,2795,2795
2738,7605,2787,2787
2739,7608,2773,2773
2740,7611,2754,2754
2741,7613,2731,2731
2742,7616,2704,2704
2743,7619,2673,2673
2744,7622,2639,2639
2745,7625,2602,2602
2746,7627,2564,2564
2747,7630,2525,2525
2748,7633,2486,2486
2749,7636,2447,2447
2750,7638,2409,2409
2751,7641,2372,2372
2752,7644,2336,2336
2753,7647,2303,2303
2754,7650,2272,2272
2755,7652,2243,2243
2756,7655,2216,2216
2757,7658,2192,2192
2758,7661,2171,2171
2759,7663,2152,2152
2760,7666,2135,2135
2761,7669,2121,2121
2762,7672,2108,2108
2763,7675,2097,2097
2764,7677,2088,2088
2765,7680,2080,2080
2766,7683,2074,2074
2767,7686,2069,2069
2768,7688,2064,2064
2769,7691,2061,2061
2770,7694,2058,2058
2771,7697,2056,2056
2772,7700,2048,2048
2773,7702,2048,2048
2774,7705,2048,2048
2775,7708,2048,2048
2776,7711,2048,2048
2777,7713,2048,2048
2778,7716,2048,2048
2779,7719,2048,2048
2780,7722,2048,2048
2781,7725,2048,2048
2782,7727,2048,2048
2783,7730,2048,2048
2784,7733,2048,2048
2785,7736,2048,2048
2786,7738,2048,2048
2787,7741,2049,2049
2788,7744,2049,2049
2789,7747,2049,2049
2790,7750,2050,2050
2791,7752,2051,2051
2792,7755,2051,2051
2793,7758,2053,2053
2794,7761,2054,2054
2795,7763,2056,2056
2796,7766,2058,2058
2797,7769,2060,2060
2798,7772,2063,2063
2799,7775,2067,2067
2800,7777,2070,2070
2801,7780,2075,2075
2802,7783,2080,2080
2803,7786,2085,2085
2804,7788,2091,2091
2805,7791,2097,2097
2806,7794,2103,2103
2807,7797,2109,2109
2808,7800,2115,2115
2809,7802,2120,2120
2810,7805,2125,2125
2811,7808,2130,2130
2812,7811,2133,2133
2813,7813,2136,2136
2814,7816,2137,2137
2815,7819,2138,2138
2816,7822,2137,2137
2817,7825,2136,2136
2818,7827,2133,2133
2819,7830,2130,2130
2820,7833,2125,2125
2821,7836,2120,2120
2822,7838,2115,2115
2823,7841,2109,2109
2824,7844,2103,2103
2825,7847,2097,2097
2826,7850,2091,2091
2827,7852,2085,2085
2828,7855,2080,2080
2829,7858,2075,2075
2830,7861,2070,2070
2831,7863,2067,2067
2832,7866,2063,2063
2833,7869,2060,2060
2834,7872,2058,2058
2835,7875,2056,2056
2836,7877,2054,2054
2837,7880,2053,2053
2838,7883,2051,2051
2839,7886,2051,2051
2840,7888,2050,2050
2841,7891,2049,2049
2842,7894,2049,2049
2843,7897,2048,2048
2844,7900,2048,2048
2845,7902,2048,2048
2846,7905,2048,2048
2847,7908,2048,2048
2848,7911,2048,2048
2849,7913,2048,2048
2850,7916,2048,2048
2851,7919,2048,2048
2852,7922,2048,2048
2853,7925,2048,2048
2854,7927,2048,2048
2855,7930,2048,2048
2856,7933,2048,2048
2857,7936,2048,2048
2858,7938,2048,2048
2859,7941,2048,2048
2860,7944,2048,2048
2861,7947,2048,2048
2862,7950,2048,2048
2863,7952,2048,2048
2864,7955,2048,2048
2865,7958,2048,2048
2866,7961,2048,2048
2867,7963,2048,2048
2868,7966,2048,2048
2869,7969,2048,2048
2870,7972,2048,2048
2871,7975,2048,2048
2872,7977,2048,2048
2873,7980,2048,2048
2874,7983,2048,2048
2875,7986,2048,2048
2876,7988,2048,2048
2877,7991,2048,2048
2878,7994,2048,2048
2879,7997,2048,2048
2880,8000,2048,2048
2881,8002,2048,2048
2882,8005,2048,2048
2883,8008,2048,2048
2884,8011,2048,2048
2885,8013,2048,2048
2886,8016,2048,2048
2887,8019,2048,2048
2888,8022,2048,2048
2889,8025,2048,2048
2890,8027,2048,2048
2891,8030,2048,2048
2892,8033,2048,2048
2893,8036,2048,2048
2894,8038,2048,2048
2895,8041,2048,2048
2896,8044,2048,2048
2897,8047,2048,2048
2898,8050,2048,2048
2899,8052,2048,2048
2900,8055,2048,2048
2901,8058,2048,2048
2902,8061,2048,2048
2903,8063,2048,2048
2904,8066,2048,2048
2905,8069,2048,2048
2906,8072,2048,2048
2907,8075,2048,2048
2908,8077,2048,2048
2909,8080,2048,2048
2910,8083,2048,2048
2911,8086,2048,2048
2912,8088,2048,2048
2913,8091,2048,2048
2914,8094,2048,2048
2915,8097,2048,2048
2916,8100,2048,2048
2917,8102,2048,2048
2918,8105,2048,2048
2919,8108,2048,2048
2920,8111,2048,2048
2921,8113,2048,2048
2922,8116,2048,2048
2923,8119,2048,2048
2924,8122,2048,2048
2925,8125,2048,2048
2926,8127,2048,2048
2927,8130,2048,2048
2928,8133,2048,2048
2929,8136,2048,2048
2930,8138,2048,2048
2931,8141,2048,2048
2932,8144,2048,2048
2933,8147,2048,2048
2934,8150,2048,2048
2935,8152,2048,2048
2936,8155,2048,2048
2937,8158,2048,2048
2938,8161,2048,2048
2939,8163,2048,2048
2940,8166,2048,2048
2941,8169,2048,2048
2942,8172,2048,2048
2943,8175,2048,2048
2944,8177,2048,2048
2945,8180,2048,2048
2946,8183,2048,2048
2947,8186,2048,2048
2948,8188,2048,2048
2949,8191,2048,2048
2950,8194,2048,2048
2951,8197,2048,2048
2952,8200,2049,2049
2953,8202,2049,2049
2954,8205,2050,2050
2955,8208,2051,2051
2956,8211,2052,2052
2957,8213,2054,2054
2958,8216,2057,2057
2959,8219,2060,2060
2960,8222,2064,2064
2961,8225,2069,2069
2962,8227,2074,2074
2963,8230,2080,2080
2964,8233,2086,2086
2965,8236,2091,2091
2966,8238,2096,2096
2967,8241,2100,2100
2968,8244,2102,2102
2969,8247,2103,2103
2970,8250,2102,2102
2971,8252,2100,2100
2972,8255,2096,2096
2973,8258,2091,2091
2974,8261,2086,2086
2975,8263,2080,2080
2976,8266,2074,2074
2977,8269,2069,2069
2978,8272,2064,2064
2979,8275,2060,2060
2980,8277,2057,2057
2981,8280,2054,2054
2982,8283,2052,2052
2983,8286,2051,2051
2984,8288,2050,2050
2985,8291,2049,2049
2986,8294,2049,2049
2987,8297,2048,2048
2988,8300,2054,2054
2989,8302,2056,2056
2990,8305,2058,2058
2991,8308,2061,2061
2992,8311,2064,2064
2993,8313,2069,2069
2994,8316,2074,2074
2995,8319,2080,2080
2996,8322,2088,2088
2997,8325,2097,2097
2998,8327,2108,2108
2999,8330,2121,2121
3000,8333,2135,2135
3001,8336,2152,2152
3002,8338,2171,2171
3003,8341,2192,2192
3004,8344,2216,2216
3005,8347,2243,2243
3006,8350,2272,2272
3007,8352,2303,2303
3008,8355,2336,2336
3009,8358,2372,2372
3010,8361,2409,2409
3011,8363,2447,2447
3012,8366,2486,2486
3013,8369,2525,2525
3014,8372,2564,2564
3015,8375,2602,2602
3016,8377,2639,2639
3017,8380,2673,2673
3018,8383,2704,2704
3019,8386,2731,2731
3020,8388,2754,2754
3021,8391,2773,2773
3022,8394,2787,2787
3023,8397,2795,2795
3024,8400,2798,2798
3025,8402,2795,2795
3026,8405,2787,2787
3027,8408,2773,2773
3028,8411,2754,2754
3029,8413,2731,2731
3030,8416,2704,2704
3031,8419,2673,2673
3032,8422,2639,2639
3033,8425,2602,2602
3034,8427,2564,2564
3035,8430,2525,2525
3036,8433,2486,2486
3037,8436,2447,2447
3038,8438,2409,2409
3039,8441,2372,2372
3040,8444,2336,2336
3041,8447,2303,2303
3042,8450,2272,2272
3043,8452,2243,2243
3044,8455,2216,2216
3045,8458,2192,2192
3046,8461,2171,2171
3047,8463,2152,2152
3048,8466,2135,2135
3049,8469,2121,2121
3050,8472,2108,2108
3051,8475,2097,2097
3052,8477,2088,2088
3053,8480,2080,2080
3054,8483,2074,2074
3055,8486,2069,2069
3056,8488,2064,2064
3057,8491,2061,2061
3058,8494,2058,2058
3059,8497,2056,2056
3060,8500,2048,2048
3061,8502,2048,2048
3062,8505,2048,2048
3063,8508,2048,2048
3064,8511,2048,2048
3065,8513,2048,2048
3066,8516,2048,2048
3067,8519,2048,2048
3068,8522,2048,2048
3069,8525,2048,2048
3070,8527,2048,2048
3071,8530,2048,2048
3072,8533,2048,2048
3073,8536,2048,2048
3074,8538,2048,2048
3075,8541,2049,2049
3076,8544,2049,2049
3077,8547,2049,2049
3078,8550,2050,2050
3079,8552,2051,2051
3080,8555,2051,2051
3081,8558,2053,2053
3082,8561,2054,2054
3083,8563,2056,2056
3084,8566,2058,2058
3085,8569,2060,2060
3086,8572,2063,2063
3087,8575,2067,2067
3088,8577,2070,2070
3089,8580,2075,2075
3090,8583,2080,2080
3091,8586,2085,2085
3092,8588,2091,2091
3093,8591,2097,2097
3094,8594,2103,2103
3095,8597,2109,2109
3096,8600,2115,2115
3097,8602,2120,2120
3098,8605,2125,2125
3099,8608,2130,2130
3100,8611,2133,2133
3101,8613,2136,2136
3102,8616,2137,2137
3103,8619,2138,2138
3104,8622,2137,2137
3105,8625,2136,2136
3106,8627,2133,2133
3107,8630,2130,2130
3108,8633,2125,2125
3109,8636,2120,2120
3110,8638,2115,2115
3111,8641,2109,2109
3112,8644,2103,2103
3113,8647,2097,2097
3114,8650,2091,2091
3115,8652,2085,2085
3116,8655,2080,2080
3117,8658,2075,2075
3118,8661,2070,2070
3119,8663,2067,2067
3120,8666,2063,2063
3121,8669,2060,2060
3122,8672,2058,2058
3123,8675,2056,2056
3124,8677,2054,2054
3125,8680,2053,2053
3126,8683,2051,2051
3127,8686,2051,2051
3128,8688,2050,2050
3129,8691,2049,2049
3130,8694,2049,2049
3131,8697,2048,2048
3132,8700,2048,2048
3133,8702,2048,2048
3134,8705,2048,2048
3135,8708,2048,2048
3136,8711,2048,2048
3137,8713,2048,2048
3138,8716,2048,2048
3139,8719,2048,2048
3140,8722,2048,2048
3141,8725,2048,2048
3142,8727,2048,2048
3143,8730,2048,2048
3144,8733,2048,2048
3145,8736,2048,2048
3146,8738,2048,2048
3147,8741,2048,2048
3148,8744,2048,2048
3149,8747,2048,2048
3150,8750,2048,2048
3151,8752,2048,2048
3152,8755,2048,2048
3153,8758,2048,2048
3154,8761,2048,2048
3155,8763,2048,2048
3156,8766,2048,2048
3157,8769,2048,2048
3158,8772,2048,2048
3159,8775,2048,2048
3160,8777,2048,2048
3161,8780,2048,2048
3162,8783,2048,2048
3163,8786,2048,2048
3164,8788,2048,2048
3165,8791,2048,2048
3166,8794,2048,2048
3167,8797,2048,2048
3168,8800,2048,2048
3169,8802,2048,2048
3170,8805,2048,2048
3171,8808,2048,2048
3172,8811,2048,2048
3173,8813,2048,2048
3174,8816,2048,2048
3175,8819,2048,2048
3176,8822,2048,2048
3177,8825,2048,2048
3178,8827,2048,2048
3179,8830,2048,2048
3180,8833,2048,2048
3181,8836,2048,2048
3182,8838,2048,2048
3183,8841,2048,2048
3184,8844,2048,2048
3185,8847,2048,2048
3186,8850,2048,2048
3187,8852,2048,2048
3188,8855,2048,2048
3189,8858,2048,2048
3190,8861,2048,2048
3191,8863,2048,2048
3192,8866,2048,2048
3193,8869,2048,2048
3194,8872,2048,2048
3195,8875,2048,2048
3196,8877,2048,2048
3197,8880,2048,2048
3198,8883,2048,2048
3199,8886,2048,2048
3200,8888,2048,2048
3201,8891,2048,2048
3202,8894,2048,2048
3203,8897,2048,2048
3204,8900,2048,2048
3205,8902,2048,2048
3206,8905,2048,2048
3207,8908,2048,2048
3208,8911,2048,2048
3209,8913,2048,2048
3210,8916,2048,2048
3211,8919,2048,2048
3212,8922,2048,2048
3213,8925,2048,2048
3214,8927,2048,2048
3215,8930,2048,2048
3216,8933,2048,2048
3217,8936,2048,2048
3218,8938,2048,2048
3219,8941,2048,2048
3220,8944,2048,2048
3221,8947,2048,2048
3222,8950,2048,2048
3223,8952,2048,2048
3224,8955,2048,2048
3225,8958,2048,2048
3226,8961,2048,2048
3227,8963,2048,2048
3228,8966,2048,2048
3229,8969,2048,2048
3230,8972,2048,2048
3231,8975,2048,2048
3232,8977,2048,2048
3233,8980,2048,2048
3234,8983,2048,2048
3235,8986,2048,2048
3236,8988,2048,2048
3237,8991,2048,2048
3238,8994,2048,2048
3239,8997,2048,2048
3240,9000,2049,2049
3241,9002,2049,2049
3242,9005,2050,2050
3243,9008,2051,2051
3244,9011,2052,2052
3245,9013,2054,2054
3246,9016,2057,2057
3247,9019,2060,2060
3248,9022,2064,2064
3249,9025,2069,2069
3250,9027,2074,2074
3251,9030,2080,2080
3252,9033,2086,2086
3253,9036,2091,2091
3254,9038,2096,2096
3255,9041,2100,2100
3256,9044,2102,2102
3257,9047,2103,2103
3258,9050,2102,2102
3259,9052,2100,2100
3260,9055,2096,2096
3261,9058,2091,2091
3262,9061,2086,2086
3263,9063,2080,2080
3264,9066,2074,2074
3265,9069,2069,2069
3266,9072,2064,2064
3267,9075,2060,2060
3268,9077,2057,2057
3269,9080,2054,2054
3270,9083,2052,2052
3271,9086,2051,2051
3272,9088,2050,2050
3273,9091,2049,2049
3274,9094,2049,2049
3275,9097,2048,2048
3276,9100,2054,2054
3277,9102,2056,2056
3278,9105,2058,2058
3279,9108,2061,2061
3280,9111,2064,2064
3281,9113,2069,2069
3282,9116,2074,2074
3283,9119,2080,2080
3284,9122,2088,2088
3285,9125,2097,2097
3286,9127,2108,2108
3287,9130,2121,2121
3288,9133,2135,2135
3289,9136,2152,2152
3290,9138,2171,2171
3291,9141,2192,2192
3292,9144,2216,2216
3293,9147,2243,2243
3294,9150,2272,2272
3295,9152,2303,2303
3296,9155,2336,2336
3297,9158,2372,2372
3298,9161,2409,2409
3299,9163,2447,2447
3300,9166,2486,2486
3301,9169,2525,2525
3302,9172,2564,2564
3303,9175,2602,2602
3304,9177,2639,2639
3305,9180,2673,2673
3306,9183,2704,2704
3307,9186,2731,2731
3308,9188,2754,2754
3309,9191,2773,2773
3310,9194,2787,2787
3311,9197,2795,2795
3312,9200,2798,2798
3313,9202,2795,2795
3314,9205,2787,2787
3315,9208,2773,2773
3316,9211,2754,2754
3317,9213,2731,2731
3318,9216,2704,2704
3319,9219,2673,2673
3320,9222,2639,2639
3321,9225,2602,2602
3322,9227,2564,2564
3323,9230,2525,2525
3324,9233,2486,2486
3325,9236,2447,2447
3326,9238,2409,2409
3327,9241,2372,2372
3328,9244,2336,2336
3329,9247,2303,2303
3330,9250,2272,2272
3331,9252,2243,2243
3332,9255,2216,2216
3333,9258,2192,2192
3334,9261,2171,2171
3335,9263,2152,2152
3336,9266,2135,2135
3337,9269,2121,2121
3338,9272,2108,2108
3339,9275,2097,2097
3340,9277,2088,2088
3341,9280,2080,2080
3342,9283,2074,2074
3343,9286,2069,2069
3344,9288,2064,2064
3345,9291,2061,2061
3346,9294,2058,2058
3347,9297,2056,2056
3348,9300,2048,2048
3349,9302,2048,2048
3350,9305,2048,2048
3351,9308,2048,2048
3352,9311,2048,2048
3353,9313,2048,2048
3354,9316,2048,2048
3355,9319,2048,2048
3356,9322,2048,2048
3357,9325,2048,2048
3358,9327,2048,2048
3359,9330,2048,2048
3360,9333,2048,2048
3361,9336,2048,2048
3362,9338,2048,2048
3363,9341,2049,2049
3364,9344,2049,2049
3365,9347,2049,2049
3366,9350,2050,2050
3367,9352,2051,2051
3368,9355,2051,2051
3369,9358,2053,2053
3370,9361,2054,2054
3371,9363,2056,2056
3372,9366,2058,2058
3373,9369,2060,2060
3374,9372,2063,2063
3375,9375,2067,2067
3376,9377,2070,2070
3377,9380,2075,2075
3378,9383,2080,2080
3379,9386,2085,2085
3380,9388,2091,2091
3381,9391,2097,2097
3382,9394,2103,2103
3383,9397,2109,2109
3384,9400,2115,2115
3385,9402,2120,2120
3386,9405,2125,2125
3387,9408,2130,2130
3388,9411,2133,2133
3389,9413,2136,2136
3390,9416,2137,2137
3391,9419,2138,2138
3392,9422,2137,2137
3393,9425,2136,2136
3394,9427,2133,2133
3395,9430,2130,2130
3396,9433,2125,2125
3397,9436,2120,2120
3398,9438,2115,2115
3399,9441,2109,2109
3400,9444,2103,2103
3401,9447,2097,2097
3402,9450,2091,2091
3403,9452,2085,2085
3404,9455,2080,2080
3405,9458,2075,2075
3406,9461,2070,2070
3407,9463,2067,2067
3408,9466,2063,2063
3409,9469,2060,2060
3410,9472,2058,2058
3411,9475,2056,2056
3412,9477,2054,2054
3413,9480,2053,2053
3414,9483,2051,2051
3415,9486,2051,2051
3416,9488,2050,2050
3417,9491,2049,2049
3418,9494,2049,2049
3419,9497,2048,2048
3420,9500,2048,2048
3421,9502,2048,2048
3422,9505,2048,2048
3423,9508,2048,2048
3424,9511,2048,2048
3425,9513,2048,2048
3426,9516,2048,2048
3427,9519,2048,2048
3428,9522,2048,2048
3429,9525,2048,2048
3430,9527,2048,2048
3431,9530,2048,2048
3432,9533,2048,2048
3433,9536,2048,2048
3434,9538,2048,2048
3435,9541,2048,2048
3436,9544,2048,2048
3437,9547,2048,2048
3438,9550,2048,2048
3439,9552,2048,2048
3440,9555,2048,2048
3441,9558,2048,2048
3442,9561,2048,2048
3443,9563,2048,2048
3444,9566,2048,2048
3445,9569,2048,2048
3446,9572,2048,2048
3447,9575,2048,2048
3448,9577,2048,2048
3449,9580,2048,2048
3450,9583,2048,2048
3451,9586,2048,2048
3452,9588,2048,2048
3453,9591,2048,2048
3454,9594,2048,2048
3455,9597,2048,2048
3456,9600,2048,2048
3457,9602,2048,2048
3458,9605,2048,2048
3459,9608,2048,2048
3460,9611,2048,2048
3461,9613,2048,2048
3462,9616,2048,2048
3463,9619,2048,2048
3464,9622,2048,2048
3465,9625,2048,2048
3466,9627,2048,2048
3467,9630,2048,2048
3468,9633,2048,2048
3469,9636,2048,2048
3470,9638,2048,2048
3471,9641,2048,2048
3472,9644,2048,2048
3473,9647,2048,2048
3474,9650,2048,2048
3475,9652,2048,2048
3476,9655,2048,2048
3477,9658,2048,2048
3478,9661,2048,2048
3479,9663,2048,2048
3480,9666,2048,2048
3481,9669,2048,2048
3482,9672,2048,2048
3483,9675,2048,2048
3484,9677,2048,2048
3485,9680,2048,2048
3486,9683,2048,2048
3487,9686,2048,2048
3488,9688,2048,2048
3489,9691,2048,2048
3490,9694,2048,2048
3491,9697,2048,2048
3492,9700,2048,2048
3493,9702,2048,2048
3494,9705,2048,2048
3495,9708,2048,2048
3496,9711,2048,2048
3497,9713,2048,2048
3498,9716,2048,2048
3499,9719,2048,2048
3500,9722,2048,2048
3501,9725,2048,2048
3502,9727,2048,2048
3503,9730,2048,2048
3504,9733,2048,2048
3505,9736,2048,2048
3506,9738,2048,2048
3507,9741,2048,2048
3508,9744,2048,2048
3509,9747,2048,2048
3510,9750,2048,2048
3511,9752,2048,2048
3512,9755,2048,2048
3513,9758,2048,2048
3514,9761,2048,2048
3515,9763,2048,2048
3516,9766,2048,2048
3517,9769,2048,2048
3518,9772,2048,2048
3519,9775,2048,2048
3520,9777,2048,2048
3521,9780,2048,2048
3522,9783,2048,2048
3523,9786,2048,2048
3524,9788,2048,2048
3525,9791,2048,2048
3526,9794,2048,2048
3527,9797,2048,2048
3528,9800,2049,2049
3529,9802,2049,2049
3530,9805,2050,2050
3531,9808,2051,2051
3532,9811,2052,2052
3533,9813,2054,2054
3534,9816,2057,2057
3535,9819,2060,2060
3536,9822,2064,2064
3537,9825,2069,2069
3538,9827,2074,2074
3539,9830,2080,2080
3540,9833,2086,2086
3541,9836,2091,2091
3542,9838,2096,2096
3543,9841,2100,2100
3544,9844,2102,2102
3545,9847,2103,2103
3546,9850,2102,2102
3547,9852,2100,2100
3548,9855,2096,2096
3549,9858,2091,2091
3550,9861,2086,2086
3551,9863,2080,2080
3552,9866,2074,2074
3553,9869,2069,2069
3554,9872,2064,2064
3555,9875,2060,2060
3556,9877,2057,2057
3557,9880,2054,2054
3558,9883,2052,2052
3559,9886,2051,2051
3560,9888,2050,2050
3561,9891,2049,2049
3562,9894,2049,2049
3563,9897,2048,2048
3564,9900,2054,2054
3565,9902,2056,2056
3566,9905,2058,2058
3567,9908,2061,2061
3568,9911,2064,2064
3569,9913,2069,2069
3570,9916,2074,2074
3571,9919,2080,2080
3572,9922,2088,2088
3573,9925,2097,2097
3574,9927,2108,2108
3575,9930,2121,2121
3576,9933,2135,2135
3577,9936,2152,2152
3578,9938,2171,2171
3579,9941,2192,2192
3580,9944,2216,2216
3581,9947,2243,2243
3582,9950,2272,2272
3583,9952,2303,2303
3584,9955,2336,2336
3585,9958,2372,2372
3586,9961,2409,2409
3587,9963,2447,2447
3588,9966,2486,2486
3589,9969,2525,2525
3590,9972,2564,2564
3591,9975,2602,2602
3592,9977,2639,2639
3593,9980,2673,2673
3594,9983,2704,2704
3595,9986,2731,2731
3596,9988,2754,2754
3597,9991,2773,2773
3598,9994,2787,2787
3599,9997,2795,2795
3600,10000,2798,2798
3601,10002,2795,2795
3602,10005,2787,2787
3603,10008,2773,2773
3604,10011,2754,2754
3605,10013,2731,2731
3606,10016,2704,2704
3607,10019,2673,2673
3608,10022,2639,2639
3609,10025,2602,2602
3610,10027,2564,2564
3611,10030,2525,2525
3612,10033,2486,2486
3613,10036,2447,2447
3614,10038,2409,2409
3615,10041,2372,2372
3616,10044,2336,2336
3617,10047,2303,2303
3618,10050,2272,2272
3619,10052,2243,2243
3620,10055,2216,2216
3621,10058,2192,2192
3622,10061,2171,2171
3623,10063,2152,2152
3624,10066,2135,2135
3625,10069,2121,2121
3626,10072,2108,2108
3627,10075,2097,2097
3628,10077,2088,2088
3629,10080,2080,2080
3630,10083,2074,2074
3631,10086,2069,2069
3632,10088,2064,2064
3633,10091,2061,2061
3634,10094,2058,2058
3635,10097,2056,2056
3636,10100,2048,2048
3637,10102,2048,2048
3638,10105,2048,2048
3639,10108,2048,2048
3640,10111,2048,2048
3641,10113,2048,2048
3642,10116,2048,2048
3643,10119,2048,2048
3644,10122,2048,2048
3645,10125,2048,2048
3646,10127,2048,2048
3647,10130,2048,2048
3648,10133,2048,2048
3649,10136,2048,2048
3650,10138,2048,2048
3651,10141,2049,2049
3652,10144,2049,2049
3653,10147,2049,2049
3654,10150,2050,2050
3655,10152,2051,2051
3656,10155,2051,2051
3657,10158,2053,2053
3658,10161,2054,2054
3659,10163,2056,2056
3660,10166,2058,2058
3661,10169,2060,2060
3662,10172,2063,2063
3663,10175,2067,2067
3664,10177,2070,2070
3665,10180,2075,2075
3666,10183,2080,2080
3667,10186,2085,2085
3668,10188,2091,2091
3669,10191,2097,2097
3670,10194,2103,2103
3671,10197,2109,2109
3672,10200,2115,2115
3673,10202,2120,2120
3674,10205,2125,2125
3675,10208,2130,2130
3676,10211,2133,2133
3677,10213,2136,2136
3678,10216,2137,2137
3679,10219,2138,2138
3680,10222,2137,2137
3681,10225,2136,2136
3682,10227,2133,2133
3683,10230,2130,2130
3684,10233,2125,2125
3685,10236,2120,2120
3686,10238,2115,2115
3687,10241,2109,2109
3688,10244,2103,2103
3689,10247,2097,2097
3690,10250,2091,2091
3691,10252,2085,2085
3692,10255,2080,2080
3693,10258,2075,2075
3694,10261,2070,2070
3695,10263,2067,2067
3696,10266,2063,2063
3697,10269,2060,2060
3698,10272,2058,2058
3699,10275,2056,2056
3700,10277,2054,2054
3701,10280,2053,2053
3702,10283,2051,2051
3703,10286,2051,2051
3704,10288,2050,2050
3705,10291,2049,2049
3706,10294,2049,2049
3707,10297,2048,2048
3708,10300,2048,2048
3709,10302,2048,2048
3710,10305,2048,2048
3711,10308,2048,2048
3712,10311,2048,2048
3713,10313,2048,2048
3714,10316,2048,2048
3715,10319,2048,2048
3716,10322,2048,2048
3717,10325,2048,2048
3718,10327,2048,2048
3719,10330,2048,2048
3720,10333,2048,2048
3721,10336,2048,2048
3722,10338,2048,2048
3723,10341,2048,2048
3724,10344,2048,2048
3725,10347,2048,2048
3726,10350,2048,2048
3727,10352,2048,2048
3728,10355,2048,2048
3729,10358,2048,2048
3730,10361,2048,2048
3731,10363,2048,2048
3732,10366,2048,2048
3733,10369,2048,2048
3734,10372,2048,2048
3735,10375,2048,2048
3736,10377,2048,2048
3737,10380,2048,2048
3738,10383,2048,2048
3739,10386,2048,2048
3740,10388,2048,2048
3741,10391,2048,2048
3742,10394,2048,2048
3743,10397,2048,2048
3744,10400,2048,2048
3745,10402,2048,2048
3746,10405,2048,2048
3747,10408,2048,2048
3748,10411,2048,2048
3749,10413,2048,2048
3750,10416,2048,2048
3751,10419,2048,2048
3752,10422,2048,2048
3753,10425,2048,2048
3754,10427,2048,2048
3755,10430,2048,2048
3756,10433,2048,2048
3757,10436,2048,2048
3758,10438,2048,2048
3759,10441,2048,2048
3760,10444,2048,2048
3761,10447,2048,2048
3762,10450,2048,2048
3763,10452,2048,2048
3764,10455,2048,2048
3765,10458,2048,2048
3766,10461,2048,2048
3767,10463,2048,2048
3768,10466,2048,2048
3769,10469,2048,2048
3770,10472,2048,2048
3771,10475,2048,2048
3772,10477,2048,2048
3773,10480,2048,2048
3774,10483,2048,2048
3775,10486,2048,2048
3776,10488,2048,2048
3777,10491,2048,2048
3778,10494,2048,2048
3779,10497,2048,2048
3780,10500,2048,2048
3781,10502,2048,2048
3782,10505,2048,2048
3783,10508,2048,2048
3784,10511,2048,2048
3785,10513,2048,2048
3786,10516,2048,2048
3787,10519,2048,2048
3788,10522,2048,2048
3789,10525,2048,2048
3790,10527,2048,2048
3791,10530,2048,2048
3792,10533,2048,2048
3793,10536,2048,2048
3794,10538,2048,2048
3795,10541,2048,2048
3796,10544,2048,2048
3797,10547,2048,2048
3798,10550,2048,2048
3799,10552,2048,2048
3800,10555,2048,2048
3801,10558,2048,2048
3802,10561,2048,2048
3803,10563,2048,2048
3804,10566,2048,2048
3805,10569,2048,2048
3806,10572,2048,2048
3807,10575,2048,2048
3808,10577,2048,2048
3809,10580,2048,2048
3810,10583,2048,2048
3811,10586,2048,2048
3812,10588,2048,2048
3813,10591,2048,2048
3814,10594,2048,2048
3815,10597,2048,2048
3816,10600,2049,2049
3817,10602,2049,2049
3818,10605,2050,2050
3819,10608,2051,2051
3820,10611,2052,2052
3821,10613,2054,2054
3822,10616,2057,2057
3823,10619,2060,2060
3824,10622,2064,2064
3825,10625,2069,2069
3826,10627,2074,2074
3827,10630,2080,2080
3828,10633,2086,2086
3829,10636,2091,2091
3830,10638,2096,2096
3831,10641,2100,2100
3832,10644,2102,2102
3833,10647,2103,2103
3834,10650,2102,2102
3835,10652,2100,2100
3836,10655,2096,2096
3837,10658,2091,2091
3838,10661,2086,2086
3839,10663,2080,2080
3840,10666,2074,2074
3841,10669,2069,2069
3842,10672,2064,2064
3843,10675,2060,2060
3844,10677,2057,2057
3845,10680,2054,2054
3846,10683,2052,2052
3847,10686,2051,2051
3848,10688,2050,2050
3849,10691,2049,2049
3850,10694,2049,2049
3851,10697,2048,2048
3852,10700,2054,2054
3853,10702,2056,2056
3854,10705,2058,2058
3855,10708,2061,2061
3856,10711,2064,2064
3857,10713,2069,2069
3858,10716,2074,2074
3859,10719,2080,2080
3860,10722,2088,2088
3861,10725,2097,2097
3862,10727,2108,2108
3863,10730,2121,2121
3864,10733,2135,2135
3865,10736,2152,2152
3866,10738,2171,2171
3867,10741,2192,2192
3868,10744,2216,2216
3869,10747,2243,2243
3870,10750,2272,2272
3871,10752,2303,2303
3872,10755,2336,2336
3873,10758,2372,2372
3874,10761,2409,2409
3875,10763,2447,2447
3876,10766,2486,2486
3877,10769,2525,2525
3878,10772,2564,2564
3879,10775,2602,2602
3880,10777,2639,2639
3881,10780,2673,2673
3882,10783,2704,2704
3883,10786,2731,2731
3884,10788,2754,2754
3885,10791,2773,2773
3886,10794,2787,2787
3887,10797,2795,2795
3888,10800,2798,2798
3889,10802,2795,2795
3890,10805,2787,2787
3891,10808,2773,2773
3892,10811,2754,2754
3893,10813,2731,2731
3894,10816,2704,2704
3895,10819,2673,2673
3896,10822,2639,2639
3897,10825,2602,2602
3898,10827,2564,2564
3899,10830,2525,2525
3900,10833,2486,2486
3901,10836,2447,2447
3902,10838,2409,2409
3903,10841,2372,2372
3904,10844,2336,2336
3905,10847,2303,2303
3906,10850,2272,2272
3907,10852,2243,2243
3908,10855,2216,2216
3909,10858,2192,2192
3910,10861,2171,2171
3911,10863,2152,2152
3912,10866,2135,2135
3913,10869,2121,2121
3914,10872,2108,2108
3915,10875,2097,2097
3916,10877,2088,2088
3917,10880,2080,2080
3918,10883,2074,2074
3919,10886,2069,2069
3920,10888,2064,2064
3921,10891,2061,2061
3922,10894,2058,2058
3923,10897,2056,2056
3924,10900,2048,2048
3925,10902,2048,2048
3926,10905,2048,2048
3927,10908,2048,2048
3928,10911,2048,2048
3929,10913,2048,2048
3930,10916,2048,2048
3931,10919,2048,2048
3932,10922,2048,2048
3933,10925,2048,2048
3934,10927,2048,2048
3935,10930,2048,2048
3936,10933,2048,2048
3937,10936,2048,2048
3938,10938,2048,2048
3939,10941,2049,2049
3940,10944,2049,2049
3941,10947,2049,2049
3942,10950,2050,2050
3943,10952,2051,2051
3944,10955,2051,2051
3945,10958,2053,2053
3946,10961,2054,2054
3947,10963,2056,2056
3948,10966,2058,2058
3949,10969,2060,2060
3950,10972,2063,2063
3951,10975,2067,2067
3952,10977,2070,2070
3953,10980,2075,2075
3954,10983,2080,2080
3955,10986,2085,2085
3956,10988,2091,2091
3957,10991,2097,2097
3958,10994,2103,2103
3959,10997,2109,2109
3960,11000,2115,2115
3961,11002,2120,2120
3962,11005,2125,2125
3963,11008,2130,2130
3964,11011,2133,2133
3965,11013,2136,2136
3966,11016,2137,2137
3967,11019,2138,2138
3968,11022,2137,2137
3969,11025,2136,2136
3970,11027,2133,2133
3971,11030,2130,2130
3972,11033,2125,2125
3973,11036,2120,2120
3974,11038,2115,2115
3975,11041,2109,2109
3976,11044,2103,2103
3977,11047,2097,2097
3978,11050,2091,2091
3979,11052,2085,2085
3980,11055,2080,2080
3981,11058,2075,2075
3982,11061,2070,2070
3983,11063,2067,2067
3984,11066,2063,2063
3985,11069,2060,2060
3986,11072,2058,2058
3987,11075,2056,2056
3988,11077,2054,2054
3989,11080,2053,2053
3990,11083,2051,2051
3991,11086,2051,2051
3992,11088,2050,2050
3993,11091,2049,2049
3994,11094,2049,2049
3995,11097,2048,2048
3996,11100,2048,2048
3997,11102,2048,2048
3998,11105,2048,2048
3999,11108,2048,2048
4000,11111,2048,2048
4001,11113,2048,2048
4002,11116,2048,2048
4003,11119,2048,2048
4004,11122,2048,2048
4005,11125,2048,2048
4006,11127,2048,2048
4007,11130,2048,2048
4008,11133,2048,2048
4009,11136,2048,2048
4010,11138,2048,2048
4011,11141,2048,2048
4012,11144,2048,2048
4013,11147,2048,2048
4014,11150,2048,2048
4015,11152,2048,2048
4016,11155,2048,2048
4017,11158,2048,2048
4018,11161,2048,2048
4019,11163,2048,2048
4020,11166,2048,2048
4021,11169,2048,2048
4022,11172,2048,2048
4023,11175,2048,2048
4024,11177,2048,2048
4025,11180,2048,2048
4026,11183,2048,2048
4027,11186,2048,2048
4028,11188,2048,2048
4029,11191,2048,2048
4030,11194,2048,2048
4031,11197,2048,2048
4032,11200,2048,2048
4033,11202,2048,2048
4034,11205,2048,2048
4035,11208,2048,2048
4036,11211,2048,2048
4037,11213,2048,2048
4038,11216,2048,2048
4039,11219,2048,2048
4040,11222,2048,2048
4041,11225,2048,2048
4042,11227,2048,2048
4043,11230,2048,2048
4044,11233,2048,2048
4045,11236,2048,2048
4046,11238,2048,2048
4047,11241,2048,2048
4048,11244,2048,2048
4049,11247,2048,2048
4050,11250,2048,2048
4051,11252,2048,2048
4052,11255,2048,2048
4053,11258,2048,2048
4054,11261,2048,2048
4055,11263,2048,2048
4056,11266,2048,2048
4057,11269,2048,2048
4058,11272,2048,2048
4059,11275,2048,2048
4060,11277,2048,2048
4061,11280,2048,2048
4062,11283,2048,2048
4063,11286,2048,2048
4064,11288,2048,2048
4065,11291,2048,2048
4066,11294,2048,2048
4067,11297,2048,2048
4068,11300,2048,2048
4069,11302,2048,2048
4070,11305,2048,2048
4071,11308,2048,2048
4072,11311,2048,2048
4073,11313,2048,2048
4074,11316,2048,2048
4075,11319,2048,2048
4076,11322,2048,2048
4077,11325,2048,2048
4078,11327,2048,2048
4079,11330,2048,2048
4080,11333,2048,2048
4081,11336,2048,2048
4082,11338,2048,2048
4083,11341,2048,2048
4084,11344,2048,2048
4085,11347,2048,2048
4086,11350,2048,2048
4087,11352,2048,2048
4088,11355,2048,2048
4089,11358,2048,2048
4090,11361,2048,2048
4091,11363,2048,2048
4092,11366,2048,2048
4093,11369,2048,2048
4094,11372,2048,2048
4095,11375,2048,2048
4096,11377,2048,2048
4097,11380,2048,2048
4098,11383,2048,2048
4099,11386,2048,2048
4100,11388,2048,2048
4101,11391,2048,2048
4102,11394,2048,2048
4103,11397,2048,2048
4104,11400,2049,2049
4105,11402,2049,2049
4106,11405,2050,2050
4107,11408,2051,2051
4108,11411,2052,2052
4109,11413,2054,2054
4110,11416,2057,2057
4111,11419,2060,2060
4112,11422,2064,2064
4113,11425,2069,2069
4114,11427,2074,2074
4115,11430,2080,2080
4116,11433,2086,2086
4117,11436,2091,2091
4118,11438,2096,2096
4119,11441,2100,2100
4120,11444,2102,2102
4121,11447,2103,2103
4122,11450,2102,2102
4123,11452,2100,2100
4124,11455,2096,2096
4125,11458,2091,2091
4126,11461,2086,2086
4127,11463,2080,2080
4128,11466,2074,2074
4129,11469,2069,2069
4130,11472,2064,2064
4131,11475,2060,2060
4132,11477,2057,2057
4133,11480,2054,2054
4134,11483,2052,2052
4135,11486,2051,2051
4136,11488,2050,2050
4137,11491,2049,2049
4138,11494,2049,2049
4139,11497,2048,2048
4140,11500,2054,2054
4141,11502,2056,2056
4142,11505,2058,2058
4143,11508,2061,2061
4144,11511,2064,2064
4145,11513,2069,2069
4146,11516,2074,2074
4147,11519,2080,2080
4148,11522,2088,2088
4149,11525,2097,2097
4150,11527,2108,2108
4151,11530,2121,2121
4152,11533,2135,2135
4153,11536,2152,2152
4154,11538,2171,2171
4155,11541,2192,2192
4156,11544,2216,2216
4157,11547,2243,2243
4158,11550,2272,2272
4159,11552,2303,2303
4160,11555,2336,2336
4161,11558,2372,2372
4162,11561,2409,2409
4163,11563,2447,2447
4164,11566,2486,2486
4165,11569,2525,2525
4166,11572,2564,2564
4167,11575,2602,2602
4168,11577,2639,2639
4169,11580,2673,2673
4170,11583,2704,2704
4171,11586,2731,2731
4172,11588,2754,2754
4173,11591,2773,2773
4174,11594,2787,2787
4175,11597,2795,2795
4176,11600,2798,2798
4177,11602,2795,2795
4178,11605,2787,2787
4179,11608,2773,2773
4180,11611,2754,2754
4181,11613,2731,2731
4182,11616,2704,2704
4183,11619,2673,2673
4184,11622,2639,2639
4185,11625,2602,2602
4186,11627,2564,2564
4187,11630,2525,2525
4188,11633,2486,2486
4189,11636,2447,2447
4190,11638,2409,2409
4191,11641,2372,2372
4192,11644,2336,2336
4193,11647,2303,2303
4194,11650,2272,2272
4195,11652,2243,2243
4196,11655,2216,2216
4197,11658,2192,2192
4198,11661,2171,2171
4199,11663,2152,2152
4200,11666,2135,2135
4201,11669,2121,2121
4202,11672,2108,2108
4203,11675,2097,2097
4204,11677,2088,2088
4205,11680,2080,2080
4206,11683,2074,2074
4207,11686,2069,2069
4208,11688,2064,2064
4209,11691,2061,2061
4210,11694,2058,2058
4211,11697,2056,2056
4212,11700,2048,2048
4213,11702,2048,2048
4214,11705,2048,2048
4215,11708,2048,2048
4216,11711,2048,2048
4217,11713,2048,2048
4218,11716,2048,2048
4219,11719,2048,2048
4220,11722,2048,2048
4221,11725,2048,2048
4222,11727,2048,2048
4223,11730,2048,2048
4224,11733,2048,2048
4225,11736,2048,2048
4226,11738,2048,2048
4227,11741,2049,2049
4228,11744,2049,2049
4229,11747,2049,2049
4230,11750,2050,2050
4231,11752,2051,2051
4232,11755,2051,2051
4233,11758,2053,2053
4234,11761,2054,2054
4235,11763,2056,2056
4236,11766,2058,2058
4237,11769,2060,2060
4238,11772,2063,2063
4239,11775,2067,2067
4240,11777,2070,2070
4241,11780,2075,2075
4242,11783,2080,2080
4243,11786,2085,2085
4244,11788,2091,2091
4245,11791,2097,2097
4246,11794,2103,2103
4247,11797,2109,2109
4248,11800,2115,2115
4249,11802,2120,2120
4250,11805,2125,2125
4251,11808,2130,2130
4252,11811,2133,2133
4253,11813,2136,2136
4254,11816,2137,2137
4255,11819,2138,2138
4256,11822,2137,2137
4257,11825,2136,2136
4258,11827,2133,2133
4259,11830,2130,2130
4260,11833,2125,2125
4261,11836,2120,2120
4262,11838,2115,2115
4263,11841,2109,2109
4264,11844,2103,2103
4265,11847,2097,2097
4266,11850,2091,2091
4267,11852,2085,2085
4268,11855,2080,2080
4269,11858,2075,2075
4270,11861,2070,2070
4271,11863,2067,2067
4272,11866,2063,2063
4273,11869,2060,2060
4274,11872,2058,2058
4275,11875,2056,2056
4276,11877,2054,2054
4277,11880,2053,2053
4278,11883,2051,2051
4279,11886,2051,2051
4280,11888,2050,2050
4281,11891,2049,2049
4282,11894,2049,2049
4283,11897,2048,2048
4284,11900,2048,2048
4285,11902,2048,2048
4286,11905,2048,2048
4287,11908,2048,2048
4288,11911,2048,2048
4289,11913,2048,2048
4290,11916,2048,2048
4291,11919,2048,2048
4292,11922,2048,2048
4293,11925,2048,2048
4294,11927,2048,2048
4295,11930,2048,2048
4296,11933,2048,2048
4297,11936,2048,2048
4298,11938,2048,2048
4299,11941,2048,2048
4300,11944,2048,2048
4301,11947,2048,2048
4302,11950,2048,2048
4303,11952,2048,2048
4304,11955,2048,2048
4305,11958,2048,2048
4306,11961,2048,2048
4307,11963,2048,2048
4308,11966,2048,2048
4309,11969,2048,2048
4310,11972,2048,2048
4311,11975,2048,2048
4312,11977,2048,2048
4313,11980,2048,2048
4314,11983,2048,2048
4315,11986,2048,2048
4316,11988,2048,2048
4317,11991,2048,2048
4318,11994,2048,2048
4319,11997,2048,2048
4320,12000,2048,2048
4321,12002,2048,2048
4322,12005,2048,2048
4323,12008,2048,2048
4324,12011,2048,2048
4325,12013,2048,2048
4326,12016,2048,2048
4327,12019,2048,2048
4328,12022,2048,2048
4329,12025,2048,2048
4330,12027,2048,2048
4331,12030,2048,2048
4332,12033,2048,2048
4333,12036,2048,2048
4334,12038,2048,2048
4335,12041,2048,2048
4336,12044,2048,2048
4337,12047,2048,2048
4338,12050,2048,2048
4339,12052,2048,2048
4340,12055,2048,2048
4341,12058,2048,2048
4342,12061,2048,2048
4343,12063,2048,2048
4344,12066,2048,2048
4345,12069,2048,2048
4346,12072,2048,2048
4347,12075,2048,2048
4348,12077,2048,2048
4349,12080,2048,2048
4350,12083,2048,2048
4351,12086,2048,2048
4352,12088,2048,2048
4353,12091,2048,2048
4354,12094,2048,2048
4355,12097,2048,2048
4356,12100,2048,2048
4357,12102,2048,2048
4358,12105,2048,2048
4359,12108,2048,2048
4360,12111,2048,2048
4361,12113,2048,2048
4362,12116,2048,2048
4363,12119,2048,2048
4364,12122,2048,2048
4365,12125,2048,2048
4366,12127,2048,2048
4367,12130,2048,2048
4368,12133,2048,2048
4369,12136,2048,2048
4370,12138,2048,2048
4371,12141,2048,2048
4372,12144,2048,2048
4373,12147,2048,2048
4374,12150,2048,2048
4375,12152,2048,2048
4376,12155,2048,2048
4377,12158,2048,2048
4378,12161,2048,2048
4379,12163,2048,2048
4380,12166,2048,2048
4381,12169,2048,2048
4382,12172,2048,2048
4383,12175,2048,2048
4384,12177,2048,2048
4385,12180,2048,2048
4386,12183,2048,2048
4387,12186,2048,2048
4388,12188,2048,2048
4389,12191,2048,2048
4390,12194,2048,2048
4391,12197,2048,2048
4392,12200,2049,2049
4393,12202,2049,2049
4394,12205,2050,2050
4395,12208,2051,2051
4396,12211,2052,2052
4397,12213,2054,2054
4398,12216,2057,2057
4399,12219,2060,2060
4400,12222,2064,2064
4401,12225,2069,2069
4402,12227,2074,2074
4403,12230,2080,2080
4404,12233,2086,2086
4405,12236,2091,2091
4406,12238,2096,2096
4407,12241,2100,2100
4408,12244,2102,2102
4409,12247,2103,2103
4410,12250,2102,2102
4411,12252,2100,2100
4412,12255,2096,2096
4413,12258,2091,2091
4414,12261,2086,2086
4415,12263,2080,2080
4416,12266,2074,2074
4417,12269,2069,2069
4418,12272,2064,2064
4419,12275,2060,2060
4420,12277,2057,2057
4421,12280,2054,2054
4422,12283,2052,2052
4423,12286,2051,2051
4424,12288,2050,2050
4425,12291,2049,2049
4426,12294,2049,2049
4427,12297,2048,2048
4428,12300,2054,2054
4429,12302,2056,2056
4430,12305,2058,2058
4431,12308,2061,2061
4432,12311,2064,2064
4433,12313,2069,2069
4434,12316,2074,2074
4435,12319,2080,2080
4436,12322,2088,2088
4437,12325,2097,2097
4438,12327,2108,2108
4439,12330,2121,2121
4440,12333,2135,2135
4441,12336,2152,2152
4442,12338,2171,2171
4443,12341,2192,2192
4444,12344,2216,2216
4445,12347,2243,2243
4446,12350,2272,2272
4447,12352,2303,2303
4448,12355,2336,2336
4449,12358,2372,2372
4450,12361,2409,2409
4451,12363,2447,2447
4452,12366,2486,2486
4453,12369,2525,2525
4454,12372,2564,2564
4455,12375,2602,2602
4456,12377,2639,2639
4457,12380,2673,2673
4458,12383,2704,2704
4459,12386,2731,2731
4460,12388,2754,2754
4461,12391,2773,2773
4462,12394,2787,2787
4463,12397,2795,2795
4464,12400,2798,2798
4465,12402,2795,2795
4466,12405,2787,2787
4467,12408,2773,2773
4468,12411,2754,2754
4469,12413,2731,2731
4470,12416,2704,2704
4471,12419,2673,2673
4472,12422,2639,2639
4473,12425,2602,2602
4474,12427,2564,2564
4475,12430,2525,2525
4476,12433,2486,2486
4477,12436,2447,2447
4478,12438,2409,2409
4479,12441,2372,2372
4480,12444,2336,2336
4481,12447,2303,2303
4482,12450,2272,2272
4483,12452,2243,2243
4484,12455,2216,2216
4485,12458,2192,2192
4486,12461,2171,2171
4487,12463,2152,2152
4488,12466,2135,2135
4489,12469,2121,2121
4490,12472,2108,2108
4491,12475,2097,2097
4492,12477,2088,2088
4493,12480,2080,2080
4494,12483,2074,2074
4495,12486,2069,2069
4496,12488,2064,2064
4497,12491,2061,2061
4498,12494,2058,2058
4499,12497,2056,2056
4500,12500,2048,2048
4501,12502,2048,2048
4502,12505,2048,2048
4503,12508,2048,2048
4504,12511,2048,2048
4505,12513,2048,2048
4506,12516,2048,2048
4507,12519,2048,2048
4508,12522,2048,2048
4509,12525,2048,2048
4510,12527,2048,2048
4511,12530,2048,2048
4512,12533,2048,2048
4513,12536,2048,2048
4514,12538,2048,2048
4515,12541,2049,2049
4516,12544,2049,2049
4517,12547,2049,2049
4518,12550,2050,2050
4519,12552,2051,2051
4520,12555,2051,2051
4521,12558,2053,2053
4522,12561,2054,2054
4523,12563,2056,2056
4524,12566,2058,2058
4525,12569,2060,2060
4526,12572,2063,2063
4527,12575,2067,2067
4528,12577,2070,2070
4529,12580,2075,2075
4530,12583,2080,2080
4531,12586,2085,2085
4532,12588,2091,2091
4533,12591,2097,2097
4534,12594,2103,2103
4535,12597,2109,2109
4536,12600,2115,2115
4537,12602,2120,2120
4538,12605,2125,2125
4539,12608,2130,2130
4540,12611,2133,2133
4541,12613,2136,2136
4542,12616,2137,2137
4543,12619,2138,2138
4544,12622,2137,2137
4545,12625,2136,2136
4546,12627,2133,2133
4547,12630,2130,2130
4548,12633,2125,2125
4549,12636,2120,2120
4550,12638,2115,2115
4551,12641,2109,2109
4552,12644,2103,2103
4553,12647,2097,2097
4554,12650,2091,2091
4555,12652,2085,2085
4556,12655,2080,2080
4557,12658,2075,2075
4558,12661,2070,2070
4559,12663,2067,2067
4560,12666,2063,2063
4561,12669,2060,2060
4562,12672,2058,2058
4563,12675,2056,2056
4564,12677,2054,2054
4565,12680,2053,2053
4566,12683,2051,2051
4567,12686,2051,2051
4568,12688,2050,2050
4569,12691,2049,2049
4570,12694,2049,2049
4571,12697,2048,2048
4572,12700,2048,2048
4573,12702,2048,2048
4574,12705,2048,2048
4575,12708,2048,2048
4576,12711,2048,2048
4577,12713,2048,2048
4578,12716,2048,2048
4579,12719,2048,2048
4580,12722,2048,2048
4581,12725,2048,2048
4582,12727,2048,2048
4583,12730,2048,2048
4584,12733,2048,2048
4585,12736,2048,2048
4586,12738,2048,2048
4587,12741,2048,2048
4588,12744,2048,2048
4589,12747,2048,2048
4590,12750,2048,2048
4591,12752,2048,2048
4592,12755,2048,2048
4593,12758,2048,2048
4594,12761,2048,2048
4595,12763,2048,2048
4596,12766,2048,2048
4597,12769,2048,2048
4598,12772,2048,2048
4599,12775,2048,2048
4600,12777,2048,2048
4601,12780,2048,2048
4602,12783,2048,2048
4603,12786,2048,2048
4604,12788,2048,2048
4605,12791,2048,2048
4606,12794,2048,2048
4607,12797,2048,2048
4608,12800,2048,2048
4609,12802,2048,2048
4610,12805,2048,2048
4611,12808,2048,2048
4612,12811,2048,2048
4613,12813,2048,2048
4614,12816,2048,2048
4615,12819,2048,2048
4616,12822,2048,2048
4617,12825,2048,2048
4618,12827,2048,2048
4619,12830,2048,2048
4620,12833,2048,2048
4621,12836,2048,2048
4622,12838,2048,2048
4623,12841,2048,2048
4624,12844,2048,2048
4625,12847,2048,2048
4626,12850,2048,2048
4627,12852,2048,2048
4628,12855,2048,2048
4629,12858,2048,2048
4630,12861,2048,2048
4631,12863,2048,2048
4632,12866,2048,2048
4633,12869,2048,2048
4634,12872,2048,2048
4635,12875,2048,2048
4636,12877,2048,2048
4637,12880,2048,2048
4638,12883,2048,2048
4639,12886,2048,2048
4640,12888,2048,2048
4641,12891,2048,2048
4642,12894,2048,2048
4643,12897,2048,2048
4644,12900,2048,2048
4645,12902,2048,2048
4646,12905,2048,2048
4647,12908,2048,2048
4648,12911,2048,2048
4649,12913,2048,2048
4650,12916,2048,2048
4651,12919,2048,2048
4652,12922,2048,2048
4653,12925,2048,2048
4654,12927,2048,2048
4655,12930,2048,2048
4656,12933,2048,2048
4657,12936,2048,2048
4658,12938,2048,2048
4659,12941,2048,2048
4660,12944,2048,2048
4661,12947,2048,2048
4662,12950,2048,2048
4663,12952,2048,2048
4664,12955,2048,2048
4665,12958,2048,2048
4666,12961,2048,2048
4667,12963,2048,2048
4668,12966,2048,2048
4669,12969,2048,2048
4670,12972,2048,2048
4671,12975,2048,2048
4672,12977,2048,2048
4673,12980,2048,2048
4674,12983,2048,2048
4675,12986,2048,2048
4676,12988,2048,2048
4677,12991,2048,2048
4678,12994,2048,2048
4679,12997,2048,2048
4680,13000,2049,2049
4681,13002,2049,2049
4682,13005,2050,2050
4683,13008,2051,2051
4684,13011,2052,2052
4685,13013,2054,2054
4686,13016,2057,2057
4687,13019,2060,2060
4688,13022,2064,2064
4689,13025,2069,2069
4690,13027,2074,2074
4691,13030,2080,2080
4692,13033,2086,2086
4693,13036,2091,2091
4694,13038,2096,2096
4695,13041,2100,2100
4696,13044,2102,2102
4697,13047,2103,2103
4698,13050,2102,2102
4699,13052,2100,2100
4700,13055,2096,2096
4701,13058,2091,2091
4702,13061,2086,2086
4703,13063,2080,2080
4704,13066,2074,2074
4705,13069,2069,2069
4706,13072,2064,2064
4707,13075,2060,2060
4708,13077,2057,2057
4709,13080,2054,2054
4710,13083,2052,2052
4711,13086,2051,2051
4712,13088,2050,2050
4713,13091,2049,2049
4714,13094,2049,2049
4715,13097,2048,2048
4716,13100,2054,2054
4717,13102,2056,2056
4718,13105,2058,2058
4719,13108,2061,2061
4720,13111,2064,2064
4721,13113,2069,2069
4722,13116,2074,2074
4723,13119,2080,2080
4724,13122,2088,2088
4725,13125,2097,2097
4726,13127,2108,2108
4727,13130,2121,2121
4728,13133,2135,2135
4729,13136,2152,2152
4730,13138,2171,2171
4731,13141,2192,2192
4732,13144,2216,2216
4733,13147,2243,2243
4734,13150,2272,2272
4735,13152,2303,2303
4736,13155,2336,2336
4737,13158,2372,2372
4738,13161,2409,2409
4739,13163,2447,2447
4740,13166,2486,2486
4741,13169,2525,2525
4742,13172,2564,2564
4743,13175,2602,2602
4744,13177,2639,2639
4745,13180,2673,2673
4746,13183,2704,2704
4747,13186,2731,2731
4748,13188,2754,2754
4749,13191,2773,2773
4750,13194,2787,2787
4751,13197,2795,2795
4752,13200,2798,2798
4753,13202,2795,2795
4754,13205,2787,2787
4755,13208,2773,2773
4756,13211,2754,2754
4757,13213,2731,2731
4758,13216,2704,2704
4759,13219,2673,2673
4760,13222,2639,2639
4761,13225,2602,2602
4762,13227,2564,2564
4763,13230,2525,2525
4764,13233,2486,2486
4765,13236,2447,2447
4766,13238,2409,2409
4767,13241,2372,2372
4768,13244,2336,2336
4769,13247,2303,2303
4770,13250,2272,2272
4771,13252,2243,2243
4772,13255,2216,2216
4773,13258,2192,2192
4774,13261,2171,2171
4775,13263,2152,2152
4776,13266,2135,2135
4777,13269,2121,2121
4778,13272,2108,2108
4779,13275,2097,2097
4780,13277,2088,2088
4781,13280,2080,2080
4782,13283,2074,2074
4783,13286,2069,2069
4784,13288,2064,2064
4785,13291,2061,2061
4786,13294,2058,2058
4787,13297,2056,2056
4788,13300,2048,2048
4789,13302,2048,2048
4790,13305,2048,2048
4791,13308,2048,2048
4792,13311,2048,2048
4793,13313,2048,2048
4794,13316,2048,2048
4795,13319,2048,2048
4796,13322,2048,2048
4797,13325,2048,2048
4798,13327,2048,2048
4799,13330,2048,2048
4800,13333,2048,2048
4801,13336,2048,2048
4802,13338,2048,2048
4803,13341,2049,2049
4804,13344,2049,2049
4805,13347,2049,2049
4806,13350,2050,2050
4807,13352,2051,2051
4808,13355,2051,2051
4809,13358,2053,2053
4810,13361,2054,2054
4811,13363,2056,2056
4812,13366,2058,2058
4813,13369,2060,2060
4814,13372,2063,2063
4815,13375,2067,2067
4816,13377,2070,2070
4817,13380,2075,2075
4818,13383,2080,2080
4819,13386,2085,2085
4820,13388,2091,2091
4821,13391,2097,2097
4822,13394,2103,2103
4823,13397,2109,2109
4824,13400,2115,2115
4825,13402,2120,2120
4826,13405,2125,2125
4827,13408,2130,2130
4828,13411,2133,2133
4829,13413,2136,2136
4830,13416,2137,2137
4831,13419,2138,2138
4832,13422,2137,2137
4833,13425,2136,2136
4834,13427,2133,2133
4835,13430,2130,2130
4836,13433,2125,2125
4837,13436,2120,2120
4838,13438,2115,2115
4839,13441,2109,2109
4840,13444,2103,2103
4841,13447,2097,2097
4842,13450,2091,2091
4843,13452,2085,2085
4844,13455,2080,2080
4845,13458,2075,2075
4846,13461,2070,2070
4847,13463,2067,2067
4848,13466,2063,2063
4849,13469,2060,2060
4850,13472,2058,2058
4851,13475,2056,2056
4852,13477,2054,2054
4853,13480,2053,2053
4854,13483,2051,2051
4855,13486,2051,2051
4856,13488,2050,2050
4857,13491,2049,2049
4858,13494,2049,2049
4859,13497,2048,2048
4860,13500,2048,2048
4861,13502,2048,2048
4862,13505,2048,2048
4863,13508,2048,2048
4864,13511,2048,2048
4865,13513,2048,2048
4866,13516,2048,2048
4867,13519,2048,2048
4868,13522,2048,2048
4869,13525,2048,2048
4870,13527,2048,2048
4871,13530,2048,2048
4872,13533,2048,2048
4873,13536,2048,2048
4874,13538,2048,2048
4875,13541,2048,2048
4876,13544,2048,2048
4877,13547,2048,2048
4878,13550,2048,2048
4879,13552,2048,2048
4880,13555,2048,2048
4881,13558,2048,2048
4882,13561,2048,2048
4883,13563,2048,2048
4884,13566,2048,2048
4885,13569,2048,2048
4886,13572,2048,2048
4887,13575,2048,2048
4888,13577,2048,2048
4889,13580,2048,2048
4890,13583,2048,2048
4891,13586,2048,2048
4892,13588,2048,2048
4893,13591,2048,2048
4894,13594,2048,2048
4895,13597,2048,2048
4896,13600,2048,2048
4897,13602,2048,2048
4898,13605,2048,2048
4899,13608,2048,2048
4900,13611,2048,2048
4901,13613,2048,2048
4902,13616,2048,2048
4903,13619,2048,2048
4904,13622,2048,2048
4905,13625,2048,2048
4906,13627,2048,2048
4907,13630,2048,2048
4908,13633,2048,2048
4909,13636,2048,2048
4910,13638,2048,2048
4911,13641,2048,2048
4912,13644,2048,2048
4913,13647,2048,2048
4914,13650,2048,2048
4915,13652,2048,2048
4916,13655,2048,2048
4917,13658,2048,2048
4918,13661,2048,2048
4919,13663,2048,2048
4920,13666,2048,2048
4921,13669,2048,2048
4922,13672,2048,2048
4923,13675,2048,2048
4924,13677,2048,2048
4925,13680,2048,2048
4926,13683,2048,2048
4927,13686,2048,2048
4928,13688,2048,2048
4929,13691,2048,2048
4930,13694,2048,2048
4931,13697,2048,2048
4932,13700,2048,2048
4933,13702,2048,2048
4934,13705,2048,2048
4935,13708,2048,2048
4936,13711,2048,2048
4937,13713,2048,2048
4938,13716,2048,2048
4939,13719,2048,2048
4940,13722,2048,2048
4941,13725,2048,2048
4942,13727,2048,2048
4943,13730,2048,2048
4944,13733,2048,2048
4945,13736,2048,2048
4946,13738,2048,2048
4947,13741,2048,2048
4948,13744,2048,2048
4949,13747,2048,2048
4950,13750,2048,2048
4951,13752,2048,2048
4952,13755,2048,2048
4953,13758,2048,2048
4954,13761,2048,2048
4955,13763,2048,2048
4956,13766,2048,2048
4957,13769,2048,2048
4958,13772,2048,2048
4959,13775,2048,2048
4960,13777,2048,2048
4961,13780,2048,2048
4962,13783,2048,2048
4963,13786,2048,2048
4964,13788,2048,2048
4965,13791,2048,2048
4966,13794,2048,2048
4967,13797,2048,2048
4968,13800,2049,2049
4969,13802,2049,2049
4970,13805,2050,2050
4971,13808,2051,2051
4972,13811,2052,2052
4973,13813,2054,2054
4974,13816,2057,2057
4975,13819,2060,2060
4976,13822,2064,2064
4977,13825,2069,2069
4978,13827,2074,2074
4979,13830,2080,2080
4980,13833,2086,2086
4981,13836,2091,2091
4982,13838,2096,2096
4983,13841,2100,2100
4984,13844,2102,2102
4985,13847,2103,2103
4986,13850,2102,2102
4987,13852,2100,2100
4988,13855,2096,2096
4989,13858,2091,2091
4990,13861,2086,2086
4991,13863,2080,2080
4992,13866,2074,2074
4993,13869,2069,2069
4994,13872,2064,2064
4995,13875,2060,2060
4996,13877,2057,2057
4997,13880,2054,2054
4998,13883,2052,2052
4999,13886,2051,2051
5000,13888,2050,2050
5001,13891,2049,2049
5002,13894,2049,2049
5003,13897,2048,2048
5004,13900,2054,2054
5005,13902,2056,2056
5006,13905,2058,2058
5007,13908,2061,2061
5008,13911,2064,2064
5009,13913,2069,2069
5010,13916,2074,2074
5011,13919,2080,2080
5012,13922,2088,2088
5013,13925,2097,2097
5014,13927,2108,2108
5015,13930,2121,2121
5016,13933,2135,2135
5017,13936,2152,2152
5018,13938,2171,2171
5019,13941,2192,2192
5020,13944,2216,2216
5021,13947,2243,2243
5022,13950,2272,2272
5023,13952,2303,2303
5024,13955,2336,2336
5025,13958,2372,2372
5026,13961,2409,2409
5027,13963,2447,2447
5028,13966,2486,2486
5029,13969,2525,2525
5030,13972,2564,2564
5031,13975,2602,2602
5032,13977,2639,2639
5033,13980,2673,2673
5034,13983,2704,2704
5035,13986,2731,2731
5036,13988,2754,2754
5037,13991,2773,2773
5038,13994,2787,2787
5039,13997,2795,2795
5040,14000,2798,2798
5041,14002,2795,2795
5042,14005,2787,2787
5043,14008,2773,2773
5044,14011,2754,2754
5045,14013,2731,2731
5046,14016,2704,2704
5047,14019,2673,2673
5048,14022,2639,2639
5049,14025,2602,2602
5050,14027,2564,2564
5051,14030,2525,2525
5052,14033,2486,2486
5053,14036,2447,2447
5054,14038,2409,2409
5055,14041,2372,2372
5056,14044,2336,2336
5057,14047,2303,2303
5058,14050,2272,2272
5059,14052,2243,2243
5060,14055,2216,2216
5061,14058,2192,2192
5062,14061,2171,2171
5063,14063,2152,2152
5064,14066,2135,2135
5065,14069,2121,2121
5066,14072,2108,2108
5067,14075,2097,2097
5068,14077,2088,2088
5069,14080,2080,2080
5070,14083,2074,2074
5071,14086,2069,2069
5072,14088,2064,2064
5073,14091,2061,2061
5074,14094,2058,2058
5075,14097,2056,2056
5076,14100,2048,2048
5077,14102,2048,2048
5078,14105,2048,2048
5079,14108,2048,2048
5080,14111,2048,2048
5081,14113,2048,2048
5082,14116,2048,2048
5083,14119,2048,2048
5084,14122,2048,2048
5085,14125,2048,2048
5086,14127,2048,2048
5087,14130,2048,2048
5088,14133,2048,2048
5089,14136,2048,2048
5090,14138,2048,2048
5091,14141,2049,2049
5092,14144,2049,2049
5093,14147,2049,2049
5094,14150,2050,2050
5095,14152,2051,2051
5096,14155,2051,2051
5097,14158,2053,2053
5098,14161,2054,2054
5099,14163,2056,2056
5100,14166,2058,2058
5101,14169,2060,2060
5102,14172,2063,2063
5103,14175,2067,2067
5104,14177,2070,2070
5105,14180,2075,2075
5106,14183,2080,2080
5107,14186,2085,2085
5108,14188,2091,2091
5109,14191,2097,2097
5110,14194,2103,2103
5111,14197,2109,2109
5112,14200,2115,2115
5113,14202,2120,2120
5114,14205,2125,2125
5115,14208,2130,2130
5116,14211,2133,2133
5117,14213,2136,2136
5118,14216,2137,2137
5119,14219,2138,2138
5120,14222,2137,2137
5121,14225,2136,2136
5122,14227,2133,2133
5123,14230,2130,2130
5124,14233,2125,2125
5125,14236,2120,2120
5126,14238,2115,2115
5127,14241,2109,2109
5128,14244,2103,2103
5129,14247,2097,2097
5130,14250,2091,2091
5131,14252,2085,2085
5132,14255,2080,2080
5133,14258,2075,2075
5134,14261,2070,2070
5135,14263,2067,2067
5136,14266,2063,2063
5137,14269,2060,2060
5138,14272,2058,2058
5139,14275,2056,2056
5140,14277,2054,2054
5141,14280,2053,2053
5142,14283,2051,2051
5143,14286,2051,2051
5144,14288,2050,2050
5145,14291,2049,2049
5146,14294,2049,2049
5147,14297,2048,2048
5148,14300,2048,2048
5149,14302,2048,2048
5150,14305,2048,2048
5151,14308,2048,2048
5152,14311,2048,2048
5153,14313,2048,2048
5154,14316,2048,2048
5155,14319,2048,2048
5156,14322,2048,2048
5157,14325,2048,2048
5158,14327,2048,2048
5159,14330,2048,2048
5160,14333,2048,2048
5161,14336,2048,2048
5162,14338,2048,2048
5163,14341,2048,2048
5164,14344,2048,2048
5165,14347,2048,2048
5166,14350,2048,2048
5167,14352,2048,2048
5168,14355,2048,2048
5169,14358,2048,2048
5170,14361,2048,2048
5171,14363,2048,2048
5172,14366,2048,2048
5173,14369,2048,2048
5174,14372,2048,2048
5175,14375,2048,2048
5176,14377,2048,2048
5177,14380,2048,2048
5178,14383,2048,2048
5179,14386,2048,2048
5180,14388,2048,2048
5181,14391,2048,2048
5182,14394,2048,2048
5183,14397,2048,2048
5184,14400,2048,2048
5185,14402,2048,2048
5186,14405,2048,2048
5187,14408,2048,2048
5188,14411,2048,2048
5189,14413,2048,2048
5190,14416,2048,2048
5191,14419,2048,2048
5192,14422,2048,2048
5193,14425,2048,2048
5194,14427,2048,2048
5195,14430,2048,2048
5196,14433,2048,2048
5197,14436,2048,2048
5198,14438,2048,2048
5199,14441,2048,2048
5200,14444,2048,2048
5201,14447,2048,2048
5202,14450,2048,2048
5203,14452,2048,2048
5204,14455,2048,2048
5205,14458,2048,2048
5206,14461,2048,2048
5207,14463,2048,2048
5208,14466,2048,2048
5209,14469,2048,2048
5210,14472,2048,2048
5211,14475,2048,2048
5212,14477,2048,2048
5213,14480,2048,2048
5214,14483,2048,2048
5215,14486,2048,2048
5216,14488,2048,2048
5217,14491,2048,2048
5218,14494,2048,2048
5219,14497,2048,2048
5220,14500,2048,2048
5221,14502,2048,2048
5222,14505,2048,2048
5223,14508,2048,2048
5224,14511,2048,2048
5225,14513,2048,2048
5226,14516,2048,2048
5227,14519,2048,2048
5228,14522,2048,2048
5229,14525,2048,2048
5230,14527,2048,2048
5231,14530,2048,2048
5232,14533,2048,2048
5233,14536,2048,2048
5234,14538,2048,2048
5235,14541,2048,2048
5236,14544,2048,2048
5237,14547,2048,2048
5238,14550,2048,2048
5239,14552,2048,2048
5240,14555,2048,2048
5241,14558,2048,2048
5242,14561,2048,2048
5243,14563,2048,2048
5244,14566,2048,2048
5245,14569,2048,2048
5246,14572,2048,2048
5247,14575,2048,2048
5248,14577,2048,2048
5249,14580,2048,2048
5250,14583,2048,2048
5251,14586,2048,2048
5252,14588,2048,2048
5253,14591,2048,2048
5254,14594,2048,2048
5255,14597,2048,2048
5256,14600,2049,2049
5257,14602,2049,2049
5258,14605,2050,2050
5259,14608,2051,2051
5260,14611,2052,2052
5261,14613,2054,2054
5262,14616,2057,2057
5263,14619,2060,2060
5264,14622,2064,2064
5265,14625,2069,2069
5266,14627,2074,2074
5267,14630,2080,2080
5268,14633,2086,2086
5269,14636,2091,2091
5270,14638,2096,2096
5271,14641,2100,2100
5272,14644,2102,2102
5273,14647,2103,2103
5274,14650,2102,2102
5275,14652,2100,2100
5276,14655,2096,2096
5277,14658,2091,2091
5278,14661,2086,2086
5279,14663,2080,2080
5280,14666,2074,2074
5281,14669,2069,2069
5282,14672,2064,2064
5283,14675,2060,2060
5284,14677,2057,2057
5285,14680,2054,2054
5286,14683,2052,2052
5287,14686,2051,2051
5288,14688,2050,2050
5289,14691,2049,2049
5290,14694,2049,2049
5291,14697,2048,2048
5292,14700,2054,2054
5293,14702,2056,2056
5294,14705,2058,2058
5295,14708,2061,2061
5296,14711,2064,2064
5297,14713,2069,2069
5298,14716,2074,2074
5299,14719,2080,2080
5300,14722,2088,2088
5301,14725,2097,2097
5302,14727,2108,2108
5303,14730,2121,2121
5304,14733,2135,2135
5305,14736,2152,2152
5306,14738,2171,2171
5307,14741,2192,2192
5308,14744,2216,2216
5309,14747,2243,2243
5310,14750,2272,2272
5311,14752,2303,2303
5312,14755,2336,2336
5313,14758,2372,2372
5314,14761,2409,2409
5315,14763,2447,2447
5316,14766,2486,2486
5317,14769,2525,2525
5318,14772,2564,2564
5319,14775,2602,2602
5320,14777,2639,2639
5321,14780,2673,2673
5322,14783,2704,2704
5323,14786,2731,2731
5324,14788,2754,2754
5325,14791,2773,2773
5326,14794,2787,2787
5327,14797,2795,2795
5328,14800,2798,2798
5329,14802,2795,2795
5330,14805,2787,2787
5331,14808,2773,2773
5332,14811,2754,2754
5333,14813,2731,2731
5334,14816,2704,2704
5335,14819,2673,2673
5336,14822,2639,2639
5337,14825,2602,2602
5338,14827,2564,2564
5339,14830,2525,2525
5340,14833,2486,2486
5341,14836,2447,2447
5342,14838,2409,2409
5343,14841,2372,2372
5344,14844,2336,2336
5345,14847,2303,2303
5346,14850,2272,2272
5347,14852,2243,2243
5348,14855,2216,2216
5349,14858,2192,2192
5350,14861,2171,2171
5351,14863,2152,2152
5352,14866,2135,2135
5353,14869,2121,2121
5354,14872,2108,2108
5355,14875,2097,2097
5356,14877,2088,2088
5357,14880,2080,2080
5358,14883,2074,2074
5359,14886,2069,2069
5360,14888,2064,2064
5361,14891,2061,2061
5362,14894,2058,2058
5363,14897,2056,2056
5364,14900,2048,2048
5365,14902,2048,2048
5366,14905,2048,2048
5367,14908,2048,2048
5368,14911,2048,2048
5369,14913,2048,2048
5370,14916,2048,2048
5371,14919,2048,2048
5372,14922,2048,2048
5373,14925,2048,2048
5374,14927,2048,2048
5375,14930,2048,2048
5376,14933,2048,2048
5377,14936,2048,2048
5378,14938,2048,2048
5379,14941,2049,2049
5380,14944,2049,2049
5381,14947,2049,2049
5382,14950,2050,2050
5383,14952,2051,2051
5384,14955,2051,2051
5385,14958,2053,2053
5386,14961,2054,2054
5387,14963,2056,2056
5388,14966,2058,2058
5389,14969,2060,2060
5390,14972,2063,2063
5391,14975,2067,2067
5392,14977,2070,2070
5393,14980,2075,2075
5394,14983,2080,2080
5395,14986,2085,2085
5396,14988,2091,2091
5397,14991,2097,2097
5398,14994,2103,2103
5399,14997,2109,2109
